##YUNITS=%T
399.282035 64.286785 
400.246484 63.943811 
401.210934 63.579574 
402.175383 63.126674 
403.139832 62.973868 
404.104282 62.640161 
405.068731 62.338855 
406.033181 62.017511 
406.997630 61.621589 
407.962079 61.231479 
408.926529 60.765035 
409.890978 60.234205 
410.855427 59.849630 
411.819877 59.471735 
412.784326 59.115412 
413.748775 58.776857 
414.713225 58.449543 
415.677674 58.142686 
416.642124 57.949139 
417.606573 57.607881 
418.571022 57.408389 
419.535472 57.169612 
420.499921 57.029181 
421.464370 57.014017 
422.428820 56.995732 
423.393269 56.986426 
424.357718 57.083147 
425.322168 57.153539 
426.286617 57.329402 
427.251066 57.419835 
428.215516 57.507724 
429.179965 57.615184 
430.144415 57.635596 
431.108864 57.767571 
432.073313 58.016442 
433.037763 58.356395 
434.002212 58.700995 
434.966661 59.070064 
435.931111 59.563567 
436.895560 59.716802 
437.860009 60.012303 
438.824459 60.230778 
439.788908 60.403402 
440.753358 60.598841 
441.717807 60.718943 
442.682256 60.871833 
443.646706 61.142413 
444.611155 61.303718 
445.575604 61.472631 
446.540054 61.602615 
447.504503 61.723746 
448.468952 61.819262 
449.433402 61.952687 
450.397851 62.028439 
451.362300 62.138892 
452.326750 62.370747 
453.291199 62.632793 
454.255649 62.803457 
455.220098 62.996368 
456.184547 63.201303 
457.148997 63.426142 
458.113446 63.647175 
459.077895 63.880353 
460.042345 64.063769 
461.006794 64.254301 
461.971243 64.486259 
462.935693 64.715168 
463.900142 64.940108 
464.864592 65.152432 
465.829041 65.344921 
466.793490 65.486737 
467.757940 65.571951 
468.722389 65.652358 
469.686838 65.739875 
470.651288 65.879957 
471.615737 65.995909 
472.580186 66.110598 
473.544636 66.224441 
474.509085 66.327230 
475.473534 66.451560 
476.437984 66.624784 
477.402433 66.802787 
478.366883 66.976432 
479.331332 67.107673 
480.295781 67.231864 
481.260231 67.327081 
482.224680 67.479147 
483.189129 67.652717 
484.153579 67.859630 
485.118028 68.082776 
486.082477 68.266097 
487.046927 68.432417 
488.011376 68.603586 
488.975826 68.765264 
489.940275 68.946870 
490.904724 69.113141 
491.869174 69.264939 
492.833623 69.393056 
493.798072 69.557821 
494.762522 69.739247 
495.726971 69.918987 
496.691420 70.114099 
497.655870 70.278718 
498.620319 70.431402 
499.584768 70.587432 
500.549218 70.756140 
501.513667 70.957375 
502.478117 71.166694 
503.442566 71.399374 
504.407015 71.614295 
505.371465 71.819186 
506.335914 72.006654 
507.300363 72.169272 
508.264813 72.340563 
509.229262 72.530415 
510.193711 72.716668 
511.158161 72.882030 
512.122610 73.005038 
513.087060 73.132947 
514.051509 73.265455 
515.015958 73.419268 
515.980408 73.567559 
516.944857 73.691322 
517.909306 73.799341 
518.873756 73.881426 
519.838205 73.970637 
520.802654 74.070730 
521.767104 74.164687 
522.731553 74.261673 
523.696002 74.354338 
524.660452 74.450743 
525.624901 74.575582 
526.589351 74.731197 
527.553800 74.887100 
528.518249 75.040169 
529.482699 75.197536 
530.447148 75.326467 
531.411597 75.450227 
532.376047 75.583324 
533.340496 75.706541 
534.304945 75.826622 
535.269395 75.945083 
536.233844 76.064965 
537.198294 76.183246 
538.162743 76.290745 
539.127192 76.385214 
540.091642 76.488882 
541.056091 76.613554 
542.020540 76.750885 
542.984990 76.890527 
543.949439 77.022399 
544.913888 77.159393 
545.878338 77.324366 
546.842787 77.468935 
547.807236 77.622816 
548.771686 77.780841 
549.736135 77.935540 
550.700585 78.102415 
551.665034 78.251681 
552.629483 78.408745 
553.593933 78.576201 
554.558382 78.736704 
555.522831 78.909905 
556.487281 79.076287 
557.451730 79.246844 
558.416179 79.426378 
559.380629 79.603358 
560.345078 79.804582 
561.309528 80.020269 
562.273977 80.245102 
563.238426 80.479565 
564.202876 80.730337 
565.167325 81.003662 
566.131774 81.292232 
567.096224 81.613076 
568.060673 81.957470 
569.025122 82.312650 
569.989572 82.687765 
570.954021 83.058710 
571.918470 83.446715 
572.882920 83.862415 
573.847369 84.294592 
574.811819 84.740316 
575.776268 85.185696 
576.740717 85.654646 
577.705167 86.141404 
578.669616 86.630978 
579.634065 87.112536 
580.598515 87.610168 
581.562964 88.098823 
582.527413 88.580045 
583.491863 89.048203 
584.456312 89.513398 
585.420762 89.975402 
586.385211 90.428604 
587.349660 90.856643 
588.314110 91.257617 
589.278559 91.631012 
590.243008 91.984986 
591.207458 92.317989 
592.171907 92.634897 
593.136356 92.941130 
594.100806 93.226982 
595.065255 93.487032 
596.029704 93.730326 
596.994154 93.956502 
597.958603 94.166753 
598.923053 94.359423 
599.887502 94.530787 
600.851951 94.677541 
601.816401 94.811641 
602.780850 94.933339 
603.745299 95.044023 
604.709749 95.151009 
605.674198 95.248212 
606.638647 95.336727 
607.603097 95.419455 
608.567546 95.507890 
609.531996 95.621633 
610.496445 95.734905 
611.460894 95.845326 
612.425344 95.939845 
613.389793 96.035803 
614.354242 96.140008 
615.318692 96.247517 
616.283141 96.354135 
617.247590 96.466109 
618.212040 96.566455 
619.176489 96.650000 
620.140938 96.720539 
621.105388 96.789021 
622.069837 96.857037 
623.034287 96.927062 
623.998736 96.996699 
624.963185 97.062558 
625.927635 97.118969 
626.892084 97.164711 
627.856533 97.203075 
628.820983 97.236959 
629.785432 97.265759 
630.749881 97.290702 
631.714331 97.307580 
632.678780 97.321965 
633.643230 97.332956 
634.607679 97.341789 
635.572128 97.347194 
636.536578 97.349118 
637.501027 97.351553 
638.465476 97.355003 
639.429926 97.358337 
640.394375 97.367603 
641.358824 97.380749 
642.323274 97.396639 
643.287723 97.401211 
644.252172 97.397584 
645.216622 97.387911 
646.181071 97.387859 
647.145521 97.388678 
648.109970 97.384302 
649.074419 97.383567 
650.038869 97.385845 
651.003318 97.377668 
651.967767 97.390542 
652.932217 97.408017 
653.896666 97.427515 
654.861115 97.444850 
655.825565 97.463001 
656.790014 97.480998 
657.754464 97.498931 
658.718913 97.515535 
659.683362 97.533900 
660.647812 97.552322 
661.612261 97.571293 
662.576710 97.591279 
663.541160 97.612592 
664.505609 97.630263 
665.470058 97.646766 
666.434508 97.658362 
667.398957 97.673622 
668.363406 97.683395 
669.327856 97.691005 
670.292305 97.699144 
671.256755 97.700484 
672.221204 97.701407 
673.185653 97.699929 
674.150103 97.693341 
675.114552 97.685625 
676.079001 97.671044 
677.043451 97.658744 
678.007900 97.643628 
678.972349 97.634457 
679.936799 97.624080 
680.901248 97.619277 
681.865698 97.622411 
682.830147 97.622658 
683.794596 97.629563 
684.759046 97.657837 
685.723495 97.660589 
686.687944 97.673040 
687.652394 97.681408 
688.616843 97.689575 
689.581292 97.704468 
690.545742 97.711764 
691.510191 97.727125 
692.474640 97.741154 
693.439090 97.750704 
694.403539 97.767986 
695.367989 97.786531 
696.332438 97.810285 
697.296887 97.834193 
698.261337 97.860500 
699.225786 97.890926 
700.190235 97.927198 
701.154685 97.964302 
702.119134 98.001817 
703.083583 98.039342 
704.048033 98.077646 
705.012482 98.119818 
705.976932 98.162930 
706.941381 98.206149 
707.905830 98.251037 
708.870280 98.293667 
709.834729 98.335756 
710.799178 98.379665 
711.763628 98.425591 
712.728077 98.466117 
713.692526 98.506123 
714.656976 98.541722 
715.621425 98.574578 
716.585874 98.608702 
717.550324 98.633070 
718.514773 98.647679 
719.479223 98.674168 
720.443672 98.690326 
721.408121 98.705297 
722.372571 98.718072 
723.337020 98.720409 
724.301469 98.728085 
725.265919 98.722563 
726.230368 98.715654 
727.194817 98.715523 
728.159267 98.714081 
729.123716 98.715772 
730.088166 98.714430 
731.052615 98.716215 
732.017064 98.721309 
732.981514 98.728404 
733.945963 98.736008 
734.910412 98.740766 
735.874862 98.754657 
736.839311 98.773006 
737.803760 98.791489 
738.768210 98.814427 
739.732659 98.838235 
740.697108 98.866070 
741.661558 98.893988 
742.626007 98.921624 
743.590457 98.956264 
744.554906 98.988743 
745.519355 99.017902 
746.483805 99.043627 
747.448254 99.070425 
748.412703 99.100358 
749.377153 99.128759 
750.341602 99.155664 
751.306051 99.182982 
752.270501 99.214115 
753.234950 99.244064 
754.199400 99.265902 
755.163849 99.283409 
756.128298 99.300715 
757.092748 99.316357 
758.057197 99.326730 
759.021646 99.336584 
759.986096 99.345556 
760.950545 99.352626 
761.914994 99.356337 
762.879444 99.357774 
763.843893 99.360411 
764.808342 99.363878 
765.772792 99.365497 
766.737241 99.362170 
767.701691 99.361313 
768.666140 99.366888 
769.630589 99.371852 
770.595039 99.375411 
771.559488 99.375770 
772.523937 99.376380 
773.488387 99.376843 
774.452836 99.376533 
775.417285 99.378338 
776.381735 99.381399 
777.346184 99.382465 
778.310634 99.376137 
779.275083 99.364539 
780.239532 99.357943 
781.203982 99.356156 
782.168431 99.356502 
783.132880 99.357467 
784.097330 99.361496 
785.061779 99.370175 
786.026228 99.375384 
786.990678 99.375669 
787.955127 99.375743 
788.919576 99.379681 
789.884026 99.383567 
790.848475 99.382284 
791.812925 99.380102 
792.777374 99.380497 
793.741823 99.383453 
794.706273 99.384606 
795.670722 99.383394 
796.635171 99.385821 
797.599621 99.390682 
798.564070 99.391990 
799.528519 99.390978 
800.492969 99.393536 
801.457418 99.399641 
802.421868 99.403703 
803.386317 99.400571 
804.350766 99.392733 
805.315216 99.388790 
806.279665 99.385173 
807.244114 99.379470 
808.208564 99.374581 
809.173013 99.371099 
810.137462 99.364895 
811.101912 99.352587 
812.066361 99.339993 
813.030810 99.333050 
813.995260 99.327999 
814.959709 99.317667 
815.924159 99.297827 
816.888608 99.267506 
817.853057 99.226078 
818.817507 99.171046 
819.781956 99.106044 
820.746405 99.038221 
821.710855 98.975317 
822.675304 98.912979 
823.639753 98.844166 
824.604203 98.769582 
825.568652 98.693875 
826.533102 98.621312 
827.497551 98.551639 
828.462000 98.489387 
829.426450 98.440476 
830.390899 98.400369 
831.355348 98.366420 
832.319798 98.339321 
833.284247 98.323414 
834.248696 98.320940 
835.213146 98.324026 
836.177595 98.331626 
837.142044 98.350865 
838.106494 98.383259 
839.070943 98.422584 
840.035393 98.464678 
840.999842 98.514407 
841.964291 98.570009 
842.928741 98.627162 
843.893190 98.680787 
844.857639 98.730822 
845.822089 98.782149 
846.786538 98.830511 
847.750987 98.865224 
848.715437 98.885942 
849.679886 98.897947 
850.644336 98.908614 
851.608785 98.915250 
852.573234 98.917478 
853.537684 98.917981 
854.502133 98.916759 
855.466582 98.907657 
856.431032 98.886859 
857.395481 98.861974 
858.359930 98.844429 
859.324380 98.833322 
860.288829 98.822920 
861.253278 98.814461 
862.217728 98.810753 
863.182177 98.808308 
864.146627 98.804038 
865.111076 98.797987 
866.075525 98.793844 
867.039975 98.791818 
868.004424 98.788813 
868.968873 98.783745 
869.933323 98.779138 
870.897772 98.777440 
871.862221 98.777050 
872.826671 98.773414 
873.791120 98.769875 
874.755570 98.768271 
875.720019 98.766581 
876.684468 98.761740 
877.648918 98.757412 
878.613367 98.758533 
879.577816 98.762716 
880.542266 98.761807 
881.506715 98.758104 
882.471164 98.758148 
883.435614 98.763335 
884.400063 98.766556 
885.364512 98.767297 
886.328962 98.768034 
887.293411 98.771373 
888.257861 98.773596 
889.222310 98.772743 
890.186759 98.775377 
891.151209 98.785031 
892.115658 98.795825 
893.080107 98.802951 
894.044557 98.807520 
895.009006 98.814289 
895.973455 98.822723 
896.937905 98.830239 
897.902354 98.834876 
898.866804 98.840398 
899.831253 98.849243 
900.795702 98.858225 
901.760152 98.862868 
902.724601 98.868152 
903.689050 98.879846 
904.653500 98.893387 
905.617949 98.901621 
906.582398 98.909060 
907.546848 98.919665 
908.511297 98.932430 
909.475746 98.945752 
910.440196 98.960631 
911.404645 98.980857 
912.369095 99.003971 
913.333544 99.020693 
914.297993 99.033149 
915.262443 99.050150 
916.226892 99.072728 
917.191341 99.093619 
918.155791 99.108513 
919.120240 99.120861 
920.084689 99.135107 
921.049139 99.147872 
922.013588 99.159908 
922.978038 99.178116 
923.942487 99.202722 
924.906936 99.226835 
925.871386 99.247134 
926.835835 99.264686 
927.800284 99.285773 
928.764734 99.311487 
929.729183 99.337266 
930.693632 99.359543 
931.658082 99.382593 
932.622531 99.407154 
933.586980 99.429164 
934.551430 99.447007 
935.515879 99.467872 
936.480329 99.494963 
937.444778 99.522621 
938.409227 99.544954 
939.373677 99.566898 
940.338126 99.593541 
941.302575 99.623072 
942.267025 99.649327 
943.231474 99.673298 
944.195923 99.699491 
945.160373 99.724933 
946.124822 99.745374 
947.089272 99.764038 
948.053721 99.786099 
949.018170 99.809124 
949.982620 99.826355 
950.947069 99.836783 
951.911518 99.847128 
952.875968 99.862297 
953.840417 99.877370 
954.804866 99.892231 
955.769316 99.909254 
956.733765 99.928940 
957.698214 99.948207 
958.662664 99.962926 
959.627113 99.974603 
960.591563 99.990379 
961.556012 100.009444 
962.520461 100.025125 
963.484911 100.035141 
964.449360 100.046565 
965.413809 100.060949 
966.378259 100.074975 
967.342708 100.087822 
968.307157 100.104677 
969.271607 100.126762 
970.236056 100.148662 
971.200506 100.163724 
972.164955 100.178052 
973.129404 100.196381 
974.093854 100.214848 
975.058303 100.229447 
976.022752 100.243802 
976.987202 100.260711 
977.951651 100.278538 
978.916100 100.293072 
979.880550 100.303945 
980.844999 100.316145 
981.809448 100.331986 
982.773898 100.345348 
983.738347 100.353897 
984.702797 100.363235 
985.667246 100.378706 
986.631695 100.394463 
987.596145 100.407305 
988.560594 100.421026 
989.525043 100.439107 
990.489493 100.455860 
991.453942 100.465827 
992.418391 100.473478 
993.382841 100.486653 
994.347290 100.504203 
995.311740 100.520248 
996.276189 100.533757 
997.240638 100.550375 
998.205088 100.570112 
999.169537 100.589628 
1000.133986 100.607043 
1001.098436 100.626208 
1002.062885 100.648540 
1003.027334 100.669286 
1003.991784 100.684234 
1004.956233 100.700503 
1005.920682 100.722834 
1006.885132 100.746985 
1007.849581 100.768547 
1008.814031 100.788842 
1009.778480 100.811967 
1010.742929 100.838567 
1011.707379 100.862316 
1012.671828 100.884430 
1013.636277 100.911534 
1014.600727 100.943322 
1015.565176 100.972604 
1016.529625 100.997636 
1017.494075 101.022838 
1018.458524 101.051708 
1019.422974 101.080036 
1020.387423 101.104190 
1021.351872 101.126823 
1022.316322 101.151058 
1023.280771 101.173215 
1024.245220 101.190310 
1025.209670 101.205086 
1026.174119 101.224047 
1027.138568 101.244661 
1028.103018 101.259896 
1029.067467 101.267503 
1030.031916 101.274066 
1030.996366 101.281613 
1031.960815 101.287589 
1032.925265 101.288358 
1033.889714 101.289650 
1034.854163 101.293476 
1035.818613 101.296367 
1036.783062 101.296204 
1037.747511 101.298403 
1038.711961 101.305478 
1039.676410 101.313921 
1040.640859 101.320561 
1041.605309 101.327978 
1042.569758 101.339150 
1043.534208 101.353174 
1044.498657 101.366937 
1045.463106 101.383899 
1046.427556 101.406619 
1047.392005 101.433753 
1048.356454 101.461560 
1049.320904 101.487723 
1050.285353 101.517631 
1051.249802 101.555840 
1052.214252 101.596867 
1053.178701 101.636060 
1054.143150 101.676077 
1055.107600 101.720499 
1056.072049 101.764931 
1057.036499 101.805967 
1058.000948 101.845703 
1058.965397 101.889049 
1059.929847 101.931433 
1060.894296 101.967498 
1061.858745 101.998750 
1062.823195 102.031104 
1063.787644 102.065459 
1064.752093 102.097205 
1065.716543 102.122268 
1066.680992 102.146838 
1067.645442 102.171540 
1068.609891 102.194137 
1069.574340 102.212221 
1070.538790 102.227224 
1071.503239 102.242992 
1072.467688 102.257218 
1073.432138 102.265670 
1074.396587 102.270606 
1075.361036 102.274563 
1076.325486 102.280051 
1077.289935 102.284632 
1078.254384 102.286224 
1079.218834 102.288986 
1080.183283 102.295661 
1081.147733 102.301579 
1082.112182 102.303224 
1083.076631 102.306977 
1084.041081 102.315352 
1085.005530 102.322506 
1085.969979 102.327458 
1086.934429 102.332163 
1087.898878 102.340069 
1088.863327 102.348538 
1089.827777 102.354010 
1090.792226 102.358421 
1091.756676 102.366548 
1092.721125 102.376990 
1093.685574 102.386453 
1094.650024 102.394797 
1095.614473 102.405754 
1096.578922 102.420348 
1097.543372 102.432871 
1098.507821 102.440645 
1099.472270 102.450675 
1100.436720 102.465021 
1101.401169 102.479343 
1102.365618 102.488981 
1103.330068 102.497344 
1104.294517 102.510408 
1105.258967 102.525236 
1106.223416 102.536129 
1107.187865 102.543732 
1108.152315 102.553975 
1109.116764 102.568196 
1110.081213 102.580132 
1111.045663 102.589128 
1112.010112 102.600794 
1112.974561 102.615486 
1113.939011 102.627849 
1114.903460 102.635832 
1115.867910 102.645041 
1116.832359 102.658007 
1117.796808 102.669381 
1118.761258 102.677653 
1119.725707 102.684595 
1120.690156 102.693736 
1121.654606 102.703341 
1122.619055 102.710993 
1123.583504 102.716320 
1124.547954 102.722966 
1125.512403 102.731170 
1126.476852 102.737569 
1127.441302 102.741425 
1128.405751 102.745514 
1129.370201 102.751879 
1130.334650 102.757264 
1131.299099 102.759485 
1132.263549 102.762208 
1133.227998 102.766754 
1134.192447 102.770186 
1135.156897 102.769491 
1136.121346 102.769607 
1137.085795 102.772449 
1138.050245 102.775892 
1139.014694 102.776968 
1139.979144 102.776918 
1140.943593 102.780466 
1141.908042 102.784608 
1142.872492 102.785993 
1143.836941 102.787164 
1144.801390 102.789782 
1145.765840 102.794560 
1146.730289 102.798653 
1147.694738 102.800505 
1148.659188 102.803908 
1149.623637 102.811632 
1150.588086 102.820508 
1151.552536 102.828912 
1152.516985 102.838569 
1153.481435 102.851258 
1154.445884 102.865311 
1155.410333 102.876848 
1156.374783 102.885541 
1157.339232 102.898111 
1158.303681 102.913538 
1159.268131 102.927741 
1160.232580 102.939504 
1161.197029 102.951631 
1162.161479 102.965958 
1163.125928 102.977531 
1164.090378 102.984485 
1165.054827 102.991105 
1166.019276 102.998851 
1166.983726 103.005203 
1167.948175 103.006763 
1168.912624 103.007606 
1169.877074 103.008609 
1170.841523 103.010181 
1171.805972 103.009190 
1172.770422 103.004118 
1173.734871 102.998519 
1174.699320 102.992188 
1175.663770 102.983261 
1176.628219 102.972181 
1177.592669 102.961136 
1178.557118 102.953291 
1179.521567 102.944480 
1180.486017 102.932863 
1181.450466 102.922737 
1182.414915 102.916818 
1183.379365 102.911100 
1184.343814 102.903324 
1185.308263 102.896491 
1186.272713 102.892673 
1187.237162 102.889917 
1188.201612 102.885053 
1189.166061 102.879560 
1190.130510 102.878967 
1191.094960 102.880642 
1192.059409 102.881125 
1193.023858 102.878964 
1193.988308 102.877416 
1194.952757 102.877754 
1195.917206 102.878482 
1196.881656 102.878987 
1197.846105 102.880476 
1198.810554 102.883840 
1199.775004 102.887584 
1200.739453 102.887669 
1201.703903 102.886350 
1202.668352 102.887457 
1203.632801 102.890448 
1204.597251 102.890339 
1205.561700 102.887170 
1206.526149 102.884542 
1207.490599 102.883331 
1208.455048 102.880772 
1209.419497 102.876811 
1210.383947 102.873669 
1211.348396 102.873430 
1212.312846 102.871567 
1213.277295 102.866999 
1214.241744 102.861917 
1215.206194 102.858024 
1216.170643 102.854688 
1217.135092 102.850608 
1218.099542 102.846023 
1219.063991 102.842421 
1220.028440 102.839227 
1220.992890 102.834859 
1221.957339 102.829899 
1222.921788 102.826764 
1223.886238 102.824937 
1224.850687 102.822262 
1225.815137 102.817063 
1226.779586 102.811952 
1227.744035 102.808837 
1228.708485 102.808126 
1229.672934 102.807012 
1230.637383 102.805408 
1231.601833 102.804539 
1232.566282 102.803300 
1233.530731 102.799552 
1234.495181 102.796036 
1235.459630 102.795928 
1236.424080 102.797077 
1237.388529 102.796002 
1238.352978 102.793401 
1239.317428 102.791828 
1240.281877 102.791678 
1241.246326 102.789553 
1242.210776 102.785671 
1243.175225 102.782365 
1244.139674 102.780767 
1245.104124 102.778590 
1246.068573 102.774538 
1247.033022 102.770815 
1247.997472 102.768859 
1248.961921 102.767369 
1249.926371 102.764680 
1250.890820 102.760285 
1251.855269 102.756234 
1252.819719 102.752024 
1253.784168 102.745904 
1254.748617 102.738300 
1255.713067 102.732917 
1256.677516 102.730811 
1257.641965 102.726184 
1258.606415 102.718581 
1259.570864 102.711743 
1260.535314 102.707392 
1261.499763 102.704123 
1262.464212 102.698704 
1263.428662 102.692033 
1264.393111 102.685912 
1265.357560 102.680044 
1266.322010 102.672419 
1267.286459 102.665012 
1268.250908 102.659819 
1269.215358 102.654440 
1270.179807 102.644905 
1271.144256 102.631605 
1272.108706 102.618894 
1273.073155 102.607691 
1274.037605 102.594429 
1275.002054 102.579940 
1275.966503 102.566308 
1276.930953 102.554188 
1277.895402 102.541305 
1278.859851 102.524379 
1279.824301 102.505786 
1280.788750 102.488636 
1281.753199 102.472086 
1282.717649 102.453295 
1283.682098 102.431888 
1284.646548 102.411423 
1285.610997 102.391972 
1286.575446 102.371607 
1287.539896 102.351154 
1288.504345 102.332023 
1289.468794 102.312784 
1290.433244 102.289385 
1291.397693 102.263985 
1292.362142 102.239280 
1293.326592 102.215429 
1294.291041 102.190604 
1295.255490 102.162766 
1296.219940 102.132875 
1297.184389 102.102884 
1298.148839 102.071610 
1299.113288 102.036746 
1300.077737 101.999238 
1301.042187 101.959430 
1302.006636 101.916456 
1302.971085 101.868004 
1303.935535 101.816566 
1304.899984 101.766588 
1305.864433 101.717181 
1306.828883 101.664735 
1307.793332 101.610380 
1308.757782 101.555768 
1309.722231 101.502160 
1310.686680 101.448447 
1311.651130 101.394562 
1312.615579 101.342997 
1313.580028 101.294111 
1314.544478 101.245342 
1315.508927 101.195777 
1316.473376 101.146606 
1317.437826 101.099806 
1318.402275 101.054101 
1319.366724 101.008195 
1320.331174 100.961210 
1321.295623 100.913949 
1322.260073 100.866495 
1323.224522 100.817212 
1324.188971 100.766839 
1325.153421 100.717654 
1326.117870 100.669233 
1327.082319 100.620105 
1328.046769 100.568511 
1329.011218 100.515767 
1329.975667 100.463622 
1330.940117 100.411808 
1331.904566 100.374716 
1332.869016 100.337785 
1333.833465 100.305786 
1334.797914 100.231002 
1335.762364 100.154133 
1336.726813 100.091363 
1337.691262 100.019078 
1338.655712 99.938458 
1339.620161 99.857405 
1340.584610 99.767622 
1341.549060 99.669681 
1342.513509 99.555775 
1343.477958 99.438187 
1344.442408 99.316750 
1345.406857 99.190609 
1346.371307 99.058987 
1347.335756 98.921693 
1348.300205 98.794600 
1349.264655 98.658060 
1350.229104 98.517597 
1351.193553 98.358614 
1352.158003 98.198519 
1353.122452 98.037854 
1354.086901 97.880761 
1355.051351 97.726957 
1356.015800 97.574273 
1356.980250 97.421545 
1357.944699 97.273092 
1358.909148 97.124512 
1359.873598 96.977091 
1360.838047 96.808472 
1361.802496 96.623260 
1362.766946 96.444134 
1363.731395 96.299989 
1364.695844 96.225938 
1365.660294 96.209105 
1366.624743 96.268365 
1367.589192 96.212148 
1368.553642 95.837293 
1369.518091 94.993130 
1370.482541 93.687885 
1371.446990 92.036389 
1372.411439 90.327453 
1373.375889 88.611674 
1374.340338 86.943225 
1375.304787 85.369778 
1376.269237 83.921074 
1377.233686 82.632048 
1378.198135 81.502709 
1379.162585 80.546129 
1380.127034 79.786719 
1381.091484 79.229290 
1382.055933 78.853019 
1383.020382 78.669145 
1383.984832 78.681051 
1384.949281 78.904218 
1385.913730 79.312732 
1386.878180 79.913348 
1387.842629 80.696689 
1388.807078 81.648019 
1389.771528 82.758563 
1390.735977 84.019518 
1391.700426 85.411367 
1392.664876 86.916451 
1393.629325 88.506314 
1394.593775 90.180821 
1395.558224 91.917181 
1396.522673 93.661959 
1397.487123 95.329663 
1398.451572 96.795456 
1399.416021 97.926628 
1400.380471 98.547121 
1401.344920 98.687787 
1402.309369 98.566093 
1403.273819 98.381558 
1404.238268 98.271754 
1405.202718 98.330559 
1406.167167 98.397903 
1407.131616 98.471631 
1408.096066 98.554412 
1409.060515 98.638196 
1410.024964 98.733372 
1410.989414 98.816542 
1411.953863 98.902639 
1412.918312 98.994557 
1413.882762 99.075360 
1414.847211 99.144735 
1415.811660 99.206139 
1416.776110 99.267292 
1417.740559 99.322423 
1418.705009 99.373900 
1419.669458 99.434475 
1420.633907 99.488062 
1421.598357 99.536102 
1422.562806 99.585868 
1423.527255 99.639020 
1424.491705 99.693805 
1425.456154 99.748842 
1426.420603 99.802953 
1427.385053 99.858638 
1428.349502 99.916727 
1429.313952 99.977411 
1430.278401 100.040043 
1431.242850 100.103031 
1432.207300 100.165780 
1433.171749 100.226803 
1434.136198 100.286380 
1435.100648 100.341588 
1436.065097 100.390295 
1437.029546 100.442286 
1437.993996 100.495378 
1438.958445 100.547960 
1439.922894 100.598810 
1440.887344 100.641118 
1441.851793 100.676340 
1442.816243 100.707559 
1443.780692 100.737072 
1444.745141 100.764597 
1445.709591 100.788753 
1446.674040 100.808715 
1447.638489 100.827900 
1448.602939 100.841893 
1449.567388 100.851387 
1450.531837 100.857795 
1451.496287 100.862042 
1452.460736 100.861671 
1453.425186 100.855973 
1454.389635 100.853605 
1455.354084 100.851754 
1456.318534 100.844680 
1457.282983 100.838379 
1458.247432 100.833409 
1459.211882 100.828619 
1460.176331 100.822574 
1461.140780 100.816581 
1462.105230 100.810398 
1463.069679 100.803844 
1464.034128 100.794997 
1464.998578 100.785642 
1465.963027 100.777683 
1466.927477 100.770093 
1467.891926 100.762125 
1468.856375 100.756251 
1469.820825 100.752488 
1470.785274 100.746936 
1471.749723 100.739841 
1472.714173 100.728125 
1473.678622 100.706483 
1474.643071 100.688486 
1475.607521 100.672910 
1476.571970 100.656560 
1477.536420 100.640089 
1478.500869 100.623676 
1479.465318 100.603653 
1480.429768 100.576822 
1481.394217 100.545771 
1482.358666 100.513639 
1483.323116 100.479841 
1484.287565 100.443453 
1485.252014 100.404144 
1486.216464 100.362531 
1487.180913 100.317414 
1488.145362 100.269244 
1489.109812 100.219529 
1490.074261 100.162011 
1491.038711 100.102048 
1492.003160 100.037784 
1492.967609 99.972604 
1493.932059 99.911241 
1494.896508 99.852466 
1495.860957 99.793015 
1496.825407 99.733121 
1497.789856 99.676032 
1498.754305 99.622442 
1499.718755 99.571793 
1500.683204 99.516899 
1501.647654 99.467100 
1502.612103 99.423388 
1503.576552 99.386854 
1504.541002 99.347487 
1505.505451 99.309128 
1506.469900 99.280712 
1507.434350 99.267724 
1508.398799 99.262204 
1509.363248 99.263825 
1510.327698 99.275617 
1511.292147 99.294110 
1512.256596 99.316075 
1513.221046 99.345595 
1514.185495 99.387655 
1515.149945 99.439588 
1516.114394 99.500605 
1517.078843 99.562649 
1518.043293 99.630279 
1519.007742 99.703270 
1519.972191 99.781130 
1520.936641 99.863137 
1521.901090 99.946910 
1522.865539 100.016909 
1523.829989 100.093078 
1524.794438 100.170287 
1525.758888 100.246218 
1526.723337 100.319695 
1527.687786 100.388325 
1528.652236 100.447266 
1529.616685 100.501014 
1530.581134 100.549262 
1531.545584 100.590522 
1532.510033 100.625219 
1533.474482 100.646078 
1534.438932 100.666879 
1535.403381 100.681244 
1536.367830 100.688519 
1537.332280 100.685664 
1538.296729 100.675602 
1539.261179 100.667741 
1540.225628 100.662777 
1541.190077 100.662337 
1542.154527 100.625518 
1543.118976 100.586040 
1544.083425 100.559504 
1545.047875 100.529813 
1546.012324 100.501828 
1546.976773 100.476508 
1547.941223 100.450822 
1548.905672 100.420242 
1549.870122 100.385881 
1550.834571 100.356671 
1551.799020 100.335278 
1552.763470 100.310196 
1553.727919 100.273191 
1554.692368 100.233503 
1555.656818 100.187922 
1556.621267 100.150210 
1557.585716 100.118361 
1558.550166 100.091366 
1559.514615 100.063532 
1560.479064 100.030442 
1561.443514 100.002575 
1562.407963 99.983993 
1563.372413 99.972138 
1564.336862 99.967180 
1565.301311 99.966809 
1566.265761 99.968238 
1567.230210 99.978781 
1568.194659 99.996673 
1569.159109 100.019300 
1570.123558 100.042391 
1571.088007 100.067056 
1572.052457 100.106252 
1573.016906 100.150837 
1573.981356 100.190868 
1574.945805 100.214762 
1575.910254 100.270574 
1576.874704 100.337689 
1577.839153 100.394801 
1578.803602 100.456597 
1579.768052 100.519918 
1580.732501 100.581834 
1581.696950 100.642681 
1582.661400 100.703562 
1583.625849 100.762652 
1584.590298 100.818228 
1585.554748 100.860945 
1586.519197 100.897388 
1587.483647 100.939073 
1588.448096 100.979312 
1589.412545 101.016338 
1590.376995 101.047028 
1591.341444 101.071213 
1592.305893 101.085966 
1593.270343 101.097810 
1594.234792 101.115339 
1595.199241 101.128849 
1596.163691 101.137762 
1597.128140 101.143101 
1598.092590 101.144475 
1599.057039 101.144494 
1600.021488 101.138022 
1600.985938 101.123757 
1601.950387 101.105031 
1602.914836 101.083951 
1603.879286 101.062438 
1604.843735 101.040022 
1605.808184 101.015238 
1606.772634 100.983764 
1607.737083 100.950213 
1608.701532 100.918319 
1609.665982 100.887658 
1610.630431 100.856784 
1611.594881 100.822582 
1612.559330 100.789618 
1613.523779 100.759145 
1614.488229 100.729285 
1615.452678 100.698063 
1616.417127 100.668850 
1617.381577 100.645236 
1618.346026 100.627851 
1619.310475 100.594950 
1620.274925 100.563549 
1621.239374 100.534104 
1622.203824 100.508083 
1623.168273 100.483058 
1624.132722 100.461344 
1625.097172 100.444084 
1626.061621 100.429098 
1627.026070 100.418389 
1627.990520 100.412477 
1628.954969 100.412074 
1629.919418 100.409867 
1630.883868 100.406870 
1631.848317 100.403487 
1632.812766 100.401716 
1633.777216 100.407577 
1634.741665 100.426156 
1635.706115 100.458645 
1636.670564 100.465590 
1637.635013 100.473412 
1638.599463 100.489137 
1639.563912 100.505982 
1640.528361 100.530712 
1641.492811 100.561638 
1642.457260 100.594783 
1643.421709 100.627363 
1644.386159 100.660596 
1645.350608 100.700633 
1646.315058 100.738530 
1647.279507 100.775249 
1648.243956 100.812799 
1649.208406 100.853385 
1650.172855 100.895909 
1651.137304 100.934721 
1652.101754 100.961892 
1653.066203 100.996673 
1654.030652 101.034549 
1654.995102 101.072541 
1655.959551 101.109891 
1656.924000 101.149534 
1657.888450 101.194600 
1658.852899 101.234629 
1659.817349 101.272805 
1660.781798 101.309707 
1661.746247 101.344443 
1662.710697 101.375874 
1663.675146 101.407720 
1664.639595 101.442805 
1665.604045 101.483917 
1666.568494 101.527376 
1667.532943 101.559132 
1668.497393 101.580071 
1669.461842 101.581307 
1670.426292 101.605929 
1671.390741 101.636565 
1672.355190 101.662881 
1673.319640 101.688251 
1674.284089 101.713822 
1675.248538 101.738979 
1676.212988 101.762787 
1677.177437 101.788843 
1678.141886 101.818881 
1679.106336 101.847333 
1680.070785 101.869576 
1681.035234 101.891151 
1681.999684 101.916176 
1682.964133 101.949217 
1683.928583 101.968632 
1684.893032 101.985159 
1685.857481 101.997136 
1686.821931 102.014450 
1687.786380 102.031253 
1688.750829 102.049848 
1689.715279 102.066389 
1690.679728 102.080795 
1691.644177 102.090744 
1692.608627 102.102938 
1693.573076 102.114709 
1694.537526 102.127730 
1695.501975 102.141006 
1696.466424 102.152934 
1697.430874 102.165763 
1698.395323 102.175897 
1699.359772 102.182134 
1700.324222 102.181534 
1701.288671 102.181978 
1702.253120 102.184554 
1703.217570 102.187502 
1704.182019 102.189694 
1705.146468 102.191028 
1706.110918 102.193284 
1707.075367 102.197928 
1708.039817 102.204719 
1709.004266 102.211712 
1709.968715 102.219316 
1710.933165 102.226121 
1711.897614 102.229024 
1712.862063 102.228953 
1713.826513 102.232580 
1714.790962 102.239420 
1715.755411 102.246256 
1716.719861 102.244232 
1717.684310 102.242687 
1718.648760 102.242098 
1719.613209 102.242764 
1720.577658 102.242166 
1721.542108 102.242090 
1722.506557 102.242707 
1723.471006 102.243154 
1724.435456 102.245340 
1725.399905 102.247032 
1726.364354 102.247128 
1727.328804 102.247459 
1728.293253 102.248359 
1729.257702 102.248494 
1730.222152 102.246844 
1731.186601 102.243044 
1732.151051 102.239066 
1733.115500 102.236020 
1734.079949 102.232692 
1735.044399 102.228971 
1736.008848 102.224521 
1736.973297 102.220784 
1737.937747 102.218903 
1738.902196 102.217804 
1739.866645 102.216595 
1740.831095 102.215853 
1741.795544 102.213931 
1742.759994 102.211455 
1743.724443 102.212066 
1744.688892 102.213490 
1745.653342 102.211437 
1746.617791 102.206577 
1747.582240 102.204650 
1748.546690 102.203907 
1749.511139 102.200860 
1750.475588 102.194111 
1751.440038 102.193407 
1752.404487 102.189395 
1753.368936 102.187008 
1754.333386 102.184779 
1755.297835 102.178124 
1756.262285 102.166417 
1757.226734 102.160459 
1758.191183 102.153763 
1759.155633 102.144520 
1760.120082 102.137271 
1761.084531 102.133243 
1762.048981 102.129871 
1763.013430 102.126465 
1763.977879 102.123079 
1764.942329 102.122151 
1765.906778 102.123274 
1766.871228 102.123445 
1767.835677 102.121256 
1768.800126 102.121878 
1769.764576 102.124347 
1770.729025 102.126835 
1771.693474 102.129372 
1772.657924 102.133143 
1773.622373 102.138666 
1774.586822 102.145447 
1775.551272 102.152821 
1776.515721 102.158712 
1777.480170 102.162787 
1778.444620 102.165676 
1779.409069 102.169109 
1780.373519 102.174445 
1781.337968 102.181781 
1782.302417 102.188695 
1783.266867 102.192796 
1784.231316 102.195051 
1785.195765 102.196566 
1786.160215 102.197209 
1787.124664 102.195414 
1788.089113 102.190950 
1789.053563 102.188671 
1790.018012 102.191530 
1790.982462 102.190750 
1791.946911 102.189035 
1792.911360 102.189978 
1793.875810 102.190362 
1794.840259 102.189561 
1795.804708 102.187839 
1796.769158 102.186412 
1797.733607 102.186334 
1798.698056 102.185962 
1799.662506 102.185508 
1800.626955 102.184218 
1801.591404 102.182482 
1802.555854 102.181813 
1803.520303 102.180607 
1804.484753 102.180108 
1805.449202 102.181279 
1806.413651 102.182494 
1807.378101 102.182963 
1808.342550 102.180314 
1809.306999 102.175408 
1810.271449 102.172372 
1811.235898 102.170187 
1812.200347 102.168216 
1813.164797 102.165300 
1814.129246 102.163288 
1815.093696 102.160530 
1816.058145 102.156147 
1817.022594 102.153023 
1817.987044 102.149699 
1818.951493 102.146121 
1819.915942 102.142457 
1820.880392 102.138412 
1821.844841 102.135920 
1822.809290 102.134058 
1823.773740 102.130884 
1824.738189 102.128214 
1825.702638 102.126894 
1826.667088 102.126935 
1827.631537 102.124499 
1828.595987 102.120106 
1829.560436 102.116557 
1830.524885 102.114366 
1831.489335 102.111899 
1832.453784 102.108862 
1833.418233 102.105696 
1834.382683 102.103991 
1835.347132 102.102781 
1836.311581 102.101347 
1837.276031 102.100248 
1838.240480 102.100125 
1839.204930 102.099660 
1840.169379 102.098377 
1841.133828 102.095315 
1842.098278 102.092225 
1843.062727 102.090605 
1844.027176 102.089666 
1844.991626 102.087234 
1845.956075 102.084017 
1846.920524 102.083281 
1847.884974 102.082351 
1848.849423 102.080444 
1849.813872 102.079017 
1850.778322 102.078531 
1851.742771 102.078671 
1852.707221 102.076835 
1853.671670 102.074532 
1854.636119 102.073137 
1855.600569 102.072142 
1856.565018 102.070794 
1857.529467 102.069406 
1858.493917 102.068212 
1859.458366 102.066422 
1860.422815 102.060958 
1861.387265 102.056624 
1862.351714 102.054864 
1863.316164 102.053821 
1864.280613 102.052121 
1865.245062 102.050111 
1866.209512 102.048357 
1867.173961 102.047791 
1868.138410 102.046930 
1869.102860 102.045271 
1870.067309 102.043819 
1871.031758 102.043644 
1871.996208 102.044775 
1872.960657 102.043726 
1873.925106 102.041817 
1874.889556 102.040448 
1875.854005 102.039845 
1876.818455 102.039813 
1877.782904 102.039208 
1878.747353 102.037870 
1879.711803 102.037346 
1880.676252 102.037050 
1881.640701 102.035760 
1882.605151 102.034763 
1883.569600 102.034423 
1884.534049 102.033669 
1885.498499 102.030870 
1886.462948 102.028723 
1887.427398 102.027438 
1888.391847 102.026724 
1889.356296 102.025342 
1890.320746 102.024437 
1891.285195 102.023947 
1892.249644 102.023660 
1893.214094 102.022024 
1894.178543 102.020023 
1895.142992 102.018829 
1896.107442 102.018184 
1897.071891 102.017483 
1898.036340 102.016226 
1899.000790 102.014455 
1899.965239 102.014108 
1900.929689 102.012955 
1901.894138 102.009982 
1902.858587 102.007209 
1903.823037 102.004853 
1904.787486 102.002717 
1905.751935 101.997042 
1906.716385 101.990867 
1907.680834 101.986713 
1908.645283 101.982785 
1909.609733 101.979614 
1910.574182 101.975032 
1911.538632 101.969727 
1912.503081 101.966385 
1913.467530 101.963436 
1914.431980 101.960120 
1915.396429 101.957161 
1916.360878 101.954703 
1917.325328 101.951997 
1918.289777 101.947674 
1919.254226 101.943041 
1920.218676 101.939147 
1921.183125 101.935618 
1922.147574 101.931577 
1923.112024 101.927662 
1924.076473 101.925393 
1925.040923 101.924497 
1926.005372 101.919325 
1926.969821 101.914176 
1927.934271 101.909704 
1928.898720 101.905714 
1929.863169 101.901875 
1930.827619 101.897897 
1931.792068 101.894193 
1932.756517 101.892223 
1933.720967 101.889290 
1934.685416 101.885163 
1935.649866 101.881285 
1936.614315 101.878089 
1937.578764 101.875081 
1938.543214 101.869614 
1939.507663 101.864648 
1940.472112 101.862378 
1941.436562 101.859787 
1942.401011 101.856954 
1943.365460 101.853318 
1944.329910 101.849841 
1945.294359 101.847703 
1946.258808 101.845805 
1947.223258 101.843240 
1948.187707 101.840782 
1949.152157 101.838626 
1950.116606 101.835795 
1951.081055 101.831768 
1952.045505 101.828400 
1953.009954 101.826387 
1953.974403 101.824874 
1954.938853 101.822627 
1955.903302 101.820001 
1956.867751 101.817895 
1957.832201 101.814184 
1958.796650 101.807677 
1959.761100 101.803111 
1960.725549 101.799807 
1961.689998 101.797705 
1962.654448 101.796032 
1963.618897 101.794245 
1964.583346 101.792673 
1965.547796 101.791517 
1966.512245 101.789530 
1967.476694 101.786501 
1968.441144 101.783341 
1969.405593 101.780794 
1970.370042 101.778082 
1971.334492 101.774703 
1972.298941 101.771391 
1973.263391 101.769296 
1974.227840 101.767464 
1975.192289 101.764168 
1976.156739 101.760217 
1977.121188 101.756675 
1978.085637 101.754240 
1979.050087 101.752255 
1980.014536 101.749689 
1980.978985 101.746347 
1981.943435 101.742842 
1982.907884 101.740059 
1983.872334 101.737257 
1984.836783 101.735053 
1985.801232 101.733245 
1986.765682 101.732153 
1987.730131 101.730392 
1988.694580 101.727894 
1989.659030 101.725828 
1990.623479 101.724532 
1991.587928 101.722803 
1992.552378 101.720119 
1993.516827 101.718567 
1994.481276 101.718667 
1995.445726 101.718727 
1996.410175 101.717934 
1997.374625 101.716551 
1998.339074 101.716275 
1999.303523 101.715316 
2000.267973 101.711434 
2001.232422 101.708250 
2002.196871 101.707454 
2003.161321 101.708731 
2004.125770 101.710299 
2005.090219 101.710398 
2006.054669 101.710644 
2007.019118 101.710637 
2007.983568 101.709466 
2008.948017 101.708040 
2009.912466 101.707538 
2010.876916 101.707670 
2011.841365 101.707041 
2012.805814 101.704498 
2013.770264 101.701798 
2014.734713 101.700141 
2015.699162 101.699259 
2016.663612 101.696887 
2017.628061 101.693634 
2018.592510 101.690751 
2019.556960 101.688444 
2020.521409 101.684280 
2021.485859 101.678960 
2022.450308 101.674308 
2023.414757 101.670881 
2024.379207 101.665420 
2025.343656 101.659162 
2026.308105 101.655171 
2027.272555 101.652006 
2028.237004 101.647777 
2029.201453 101.642405 
2030.165903 101.636587 
2031.130352 101.632122 
2032.094802 101.627120 
2033.059251 101.621825 
2034.023700 101.619736 
2034.988150 101.618992 
2035.952599 101.617019 
2036.917048 101.613002 
2037.881498 101.607921 
2038.845947 101.603980 
2039.810396 101.600650 
2040.774846 101.597326 
2041.739295 101.593238 
2042.703744 101.589562 
2043.668194 101.585883 
2044.632643 101.581672 
2045.597093 101.576496 
2046.561542 101.571840 
2047.525991 101.567252 
2048.490441 101.561545 
2049.454890 101.555369 
2050.419339 101.550111 
2051.383789 101.546435 
2052.348238 101.543727 
2053.312687 101.539840 
2054.277137 101.535792 
2055.241586 101.532552 
2056.206036 101.529812 
2057.170485 101.525670 
2058.134934 101.522128 
2059.099384 101.519883 
2060.063833 101.518408 
2061.028282 101.516881 
2061.992732 101.513517 
2062.957181 101.509853 
2063.921630 101.507619 
2064.886080 101.504841 
2065.850529 101.500431 
2066.814978 101.496027 
2067.779428 101.492473 
2068.743877 101.488770 
2069.708327 101.484666 
2070.672776 101.479796 
2071.637225 101.475416 
2072.601675 101.471459 
2073.566124 101.466514 
2074.530573 101.461143 
2075.495023 101.456766 
2076.459472 101.453152 
2077.423921 101.448894 
2078.388371 101.442557 
2079.352820 101.436078 
2080.317270 101.430095 
2081.281719 101.424660 
2082.246168 101.419416 
2083.210618 101.413921 
2084.175067 101.409482 
2085.139516 101.406246 
2086.103966 101.401937 
2087.068415 101.397547 
2088.032864 101.394120 
2088.997314 101.391922 
2089.961763 101.389600 
2090.926212 101.386929 
2091.890662 101.385586 
2092.855111 101.386241 
2093.819561 101.386600 
2094.784010 101.386144 
2095.748459 101.386058 
2096.712909 101.387990 
2097.677358 101.390073 
2098.641807 101.391746 
2099.606257 101.394299 
2100.570706 101.397858 
2101.535155 101.401055 
2102.499605 101.403455 
2103.464054 101.405756 
2104.428504 101.409413 
2105.392953 101.413518 
2106.357402 101.416712 
2107.321852 101.419369 
2108.286301 101.421345 
2109.250750 101.422872 
2110.215200 101.423937 
2111.179649 101.423623 
2112.144098 101.423769 
2113.108548 101.424706 
2114.072997 101.425371 
2115.037446 101.423954 
2116.001896 101.422270 
2116.966345 101.422327 
2117.930795 101.423419 
2118.895244 101.422936 
2119.859693 101.421589 
2120.824143 101.420906 
2121.788592 101.420904 
2122.753041 101.419634 
2123.717491 101.417720 
2124.681940 101.416875 
2125.646389 101.417617 
2126.610839 101.417972 
2127.575288 101.416735 
2128.539738 101.415095 
2129.504187 101.415399 
2130.468636 101.415505 
2131.433086 101.415095 
2132.397535 101.414518 
2133.361984 101.414528 
2134.326434 101.414763 
2135.290883 101.414080 
2136.255332 101.412936 
2137.219782 101.412081 
2138.184231 101.411206 
2139.148680 101.409748 
2140.113130 101.407568 
2141.077579 101.406133 
2142.042029 101.405867 
2143.006478 101.406094 
2143.970927 101.404678 
2144.935377 101.403031 
2145.899826 101.401883 
2146.864275 101.400485 
2147.828725 101.397588 
2148.793174 101.395012 
2149.757623 101.393699 
2150.722073 101.392668 
2151.686522 101.389977 
2152.650972 101.386646 
2153.615421 101.384287 
2154.579870 101.382540 
2155.544320 101.380074 
2156.508769 101.377927 
2157.473218 101.376365 
2158.437668 101.375721 
2159.402117 101.373964 
2160.366566 101.370634 
2161.331016 101.367612 
2162.295465 101.366469 
2163.259914 101.365017 
2164.224364 101.362445 
2165.188813 101.359181 
2166.153263 101.356984 
2167.117712 101.355251 
2168.082161 101.352728 
2169.046611 101.349727 
2170.011060 101.347587 
2170.975509 101.346665 
2171.939959 101.345771 
2172.904408 101.343320 
2173.868857 101.341276 
2174.833307 101.340517 
2175.797756 101.339543 
2176.762206 101.336504 
2177.726655 101.333146 
2178.691104 101.331258 
2179.655554 101.330204 
2180.620003 101.327756 
2181.584452 101.325372 
2182.548902 101.323703 
2183.513351 101.323195 
2184.477800 101.321860 
2185.442250 101.319954 
2186.406699 101.319211 
2187.371148 101.319326 
2188.335598 101.318670 
2189.300047 101.318046 
2190.264497 101.317119 
2191.228946 101.316684 
2192.193395 101.315334 
2193.157845 101.312876 
2194.122294 101.310759 
2195.086743 101.309895 
2196.051193 101.308903 
2197.015642 101.307705 
2197.980091 101.306024 
2198.944541 101.305453 
2199.908990 101.305645 
2200.873440 101.305364 
2201.837889 101.304120 
2202.802338 101.303839 
2203.766788 101.304159 
2204.731237 101.303443 
2205.695686 101.301605 
2206.660136 101.300794 
2207.624585 101.300603 
2208.589034 101.299561 
2209.553484 101.297241 
2210.517933 101.295278 
2211.482382 101.294811 
2212.446832 101.294927 
2213.411281 101.293820 
2214.375731 101.292702 
2215.340180 101.292257 
2216.304629 101.292893 
2217.269079 101.292214 
2218.233528 101.291213 
2219.197977 101.291188 
2220.162427 101.292093 
2221.126876 101.292184 
2222.091325 101.291642 
2223.055775 101.290771 
2224.020224 101.290812 
2224.984674 101.290085 
2225.949123 101.288422 
2226.913572 101.286923 
2227.878022 101.286417 
2228.842471 101.285916 
2229.806920 101.284404 
2230.771370 101.281578 
2231.735819 101.279834 
2232.700268 101.278703 
2233.664718 101.277140 
2234.629167 101.273957 
2235.593616 101.271120 
2236.558066 101.268615 
2237.522515 101.265404 
2238.486965 101.261069 
2239.451414 101.257134 
2240.415863 101.253263 
2241.380313 101.249218 
2242.344762 101.244225 
2243.309211 101.239881 
2244.273661 101.235847 
2245.238110 101.232357 
2246.202559 101.227771 
2247.167009 101.222705 
2248.131458 101.218035 
2249.095908 101.214273 
2250.060357 101.209383 
2251.024806 101.204816 
2251.989256 101.200566 
2252.953705 101.196962 
2253.918154 101.192173 
2254.882604 101.187475 
2255.847053 101.183349 
2256.811502 101.179959 
2257.775952 101.175581 
2258.740401 101.170747 
2259.704850 101.166462 
2260.669300 101.163130 
2261.633749 101.159874 
2262.598199 101.156571 
2263.562648 101.152585 
2264.527097 101.149644 
2265.491547 101.146783 
2266.455996 101.144056 
2267.420445 101.140106 
2268.384895 101.137517 
2269.349344 101.135247 
2270.313793 101.133252 
2271.278243 101.130855 
2272.242692 101.128883 
2273.207142 101.126907 
2274.171591 101.125816 
2275.136040 101.123770 
2276.100490 101.122033 
2277.064939 101.120109 
2278.029388 101.118928 
2278.993838 101.115576 
2279.958287 101.111971 
2280.922736 101.108492 
2281.887186 101.106028 
2282.851635 101.101941 
2283.816084 101.097496 
2284.780534 101.092640 
2285.744983 101.087986 
2286.709433 101.082729 
2287.673882 101.077843 
2288.638331 101.071810 
2289.602781 101.066996 
2290.567230 101.060797 
2291.531679 101.056606 
2292.496129 101.050850 
2293.460578 101.047421 
2294.425027 101.040498 
2295.389477 101.034527 
2296.353926 101.024974 
2297.318376 101.017570 
2298.282825 101.008765 
2299.247274 101.002327 
2300.211724 100.995498 
2301.176173 100.991048 
2302.140622 100.986653 
2303.105072 100.984084 
2304.069521 100.981843 
2305.033970 100.979630 
2305.998420 100.979573 
2306.962869 100.980012 
2307.927318 100.980326 
2308.891768 100.979832 
2309.856217 100.980666 
2310.820667 100.981284 
2311.785116 100.980666 
2312.749565 100.980832 
2313.714015 100.981702 
2314.678464 100.983414 
2315.642913 100.985143 
2316.607363 100.986792 
2317.571812 100.990051 
2318.536261 100.992747 
2319.500711 100.996899 
2320.465160 101.001120 
2321.429610 101.005231 
2322.394059 101.010707 
2323.358508 101.015690 
2324.322958 101.020472 
2325.287407 101.022236 
2326.251856 101.025573 
2327.216306 101.025375 
2328.180755 101.025167 
2329.145204 101.021194 
2330.109654 101.017379 
2331.074103 101.012976 
2332.038552 101.013020 
2333.003002 101.014351 
2333.967451 101.013881 
2334.931901 101.006597 
2335.896350 100.997215 
2336.860799 100.984866 
2337.825249 100.968814 
2338.789698 100.953434 
2339.754147 100.937678 
2340.718597 100.920890 
2341.683046 100.901422 
2342.647495 100.882558 
2343.611945 100.862246 
2344.576394 100.840125 
2345.540844 100.819492 
2346.505293 100.799435 
2347.469742 100.779960 
2348.434192 100.760481 
2349.398641 100.742002 
2350.363090 100.725807 
2351.327540 100.709820 
2352.291989 100.697469 
2353.256438 100.685977 
2354.220888 100.677037 
2355.185337 100.671232 
2356.149786 100.667900 
2357.114236 100.666238 
2358.078685 100.668145 
2359.043135 100.673661 
2360.007584 100.680744 
2360.972033 100.688898 
2361.936483 100.699975 
2362.900932 100.713101 
2363.865381 100.729846 
2364.829831 100.746892 
2365.794280 100.760732 
2366.758729 100.767966 
2367.723179 100.773062 
2368.687628 100.780264 
2369.652078 100.786665 
2370.616527 100.792115 
2371.580976 100.799476 
2372.545426 100.806249 
2373.509875 100.810427 
2374.474324 100.812754 
2375.438774 100.815094 
2376.403223 100.815956 
2377.367672 100.815028 
2378.332122 100.814108 
2379.296571 100.811527 
2380.261020 100.808785 
2381.225470 100.805076 
2382.189919 100.801245 
2383.154369 100.796390 
2384.118818 100.791577 
2385.083267 100.787119 
2386.047717 100.781757 
2387.012166 100.777108 
2387.976615 100.773384 
2388.941065 100.770346 
2389.905514 100.767596 
2390.869963 100.765520 
2391.834413 100.764892 
2392.798862 100.764018 
2393.763312 100.762217 
2394.727761 100.759793 
2395.692210 100.756848 
2396.656660 100.753751 
2397.621109 100.749143 
2398.585558 100.743556 
2399.550008 100.737342 
2400.514457 100.731797 
2401.478906 100.726128 
2402.443356 100.719639 
2403.407805 100.714128 
2404.372254 100.709847 
2405.336704 100.706635 
2406.301153 100.704779 
2407.265603 100.704849 
2408.230052 100.707410 
2409.194501 100.710348 
2410.158951 100.709386 
2411.123400 100.699838 
2412.087849 100.682301 
2413.052299 100.658857 
2414.016748 100.630655 
2414.981197 100.600261 
2415.945647 100.570071 
2416.910096 100.541719 
2417.874546 100.514524 
2418.838995 100.488622 
2419.803444 100.464993 
2420.767894 100.444570 
2421.732343 100.427932 
2422.696792 100.414433 
2423.661242 100.404862 
2424.625691 100.399764 
2425.590140 100.397380 
2426.554590 100.397562 
2427.519039 100.400651 
2428.483488 100.407884 
2429.447938 100.418485 
2430.412387 100.431414 
2431.376837 100.446884 
2432.341286 100.465100 
2433.305735 100.486658 
2434.270185 100.510372 
2435.234634 100.535589 
2436.199083 100.563113 
2437.163533 100.591917 
2438.127982 100.621688 
2439.092431 100.650239 
2440.056881 100.676240 
2441.021330 100.696926 
2441.985780 100.709320 
2442.950229 100.711313 
2443.914678 100.705471 
2444.879128 100.697664 
2445.843577 100.691126 
2446.808026 100.685539 
2447.772476 100.680878 
2448.736925 100.677042 
2449.701374 100.674285 
2450.665824 100.671003 
2451.630273 100.667422 
2452.594722 100.664089 
2453.559172 100.661722 
2454.523621 100.659710 
2455.488071 100.657096 
2456.452520 100.654438 
2457.416969 100.652105 
2458.381419 100.649504 
2459.345868 100.646827 
2460.310317 100.643677 
2461.274767 100.641748 
2462.239216 100.640169 
2463.203665 100.638513 
2464.168115 100.636292 
2465.132564 100.634392 
2466.097014 100.633047 
2467.061463 100.631249 
2468.025912 100.628798 
2468.990362 100.626159 
2469.954811 100.622766 
2470.919260 100.618933 
2471.883710 100.614418 
2472.848159 100.610090 
2473.812608 100.605533 
2474.777058 100.601199 
2475.741507 100.596751 
2476.705956 100.592565 
2477.670406 100.589476 
2478.634855 100.587299 
2479.599305 100.584423 
2480.563754 100.580776 
2481.528203 100.577767 
2482.492653 100.575932 
2483.457102 100.573267 
2484.421551 100.570122 
2485.386001 100.566486 
2486.350450 100.563578 
2487.314899 100.560520 
2488.279349 100.556947 
2489.243798 100.553208 
2490.208248 100.549518 
2491.172697 100.546180 
2492.137146 100.543132 
2493.101596 100.539415 
2494.066045 100.536377 
2495.030494 100.533615 
2495.994944 100.530281 
2496.959393 100.526289 
2497.923842 100.522959 
2498.888292 100.520053 
2499.852741 100.516552 
2500.817190 100.512089 
2501.781640 100.507755 
2502.746089 100.503807 
2503.710539 100.500180 
2504.674988 100.496462 
2505.639437 100.492978 
2506.603887 100.489774 
2507.568336 100.487122 
2508.532785 100.484076 
2509.497235 100.481525 
2510.461684 100.479573 
2511.426133 100.477585 
2512.390583 100.475011 
2513.355032 100.472443 
2514.319482 100.470448 
2515.283931 100.468378 
2516.248380 100.465776 
2517.212830 100.463326 
2518.177279 100.461004 
2519.141728 100.459547 
2520.106178 100.457393 
2521.070627 100.454489 
2522.035076 100.451636 
2522.999526 100.449750 
2523.963975 100.447956 
2524.928424 100.445822 
2525.892874 100.443223 
2526.857323 100.440791 
2527.821773 100.438379 
2528.786222 100.435818 
2529.750671 100.432886 
2530.715121 100.429884 
2531.679570 100.426720 
2532.644019 100.423865 
2533.608469 100.421400 
2534.572918 100.418844 
2535.537367 100.416058 
2536.501817 100.412828 
2537.466266 100.409500 
2538.430716 100.407154 
2539.395165 100.404713 
2540.359614 100.401642 
2541.324064 100.397968 
2542.288513 100.394494 
2543.252962 100.390774 
2544.217412 100.387508 
2545.181861 100.383945 
2546.146310 100.379718 
2547.110760 100.375431 
2548.075209 100.370986 
2549.039658 100.366454 
2550.004108 100.361908 
2550.968557 100.357228 
2551.933007 100.353220 
2552.897456 100.349112 
2553.861905 100.344312 
2554.826355 100.339429 
2555.790804 100.335500 
2556.755253 100.331706 
2557.719703 100.328273 
2558.684152 100.325366 
2559.648601 100.322718 
2560.613051 100.319347 
2561.577500 100.315631 
2562.541950 100.311515 
2563.506399 100.307892 
2564.470848 100.304513 
2565.435298 100.301168 
2566.399747 100.297401 
2567.364196 100.293099 
2568.328646 100.288780 
2569.293095 100.285365 
2570.257544 100.281923 
2571.221994 100.278707 
2572.186443 100.275113 
2573.150892 100.271301 
2574.115342 100.267248 
2575.079791 100.263338 
2576.044241 100.259990 
2577.008690 100.256909 
2577.973139 100.252270 
2578.937589 100.247182 
2579.902038 100.242068 
2580.866487 100.236351 
2581.830937 100.230027 
2582.795386 100.224138 
2583.759835 100.218386 
2584.724285 100.213350 
2585.688734 100.208104 
2586.653184 100.202472 
2587.617633 100.197125 
2588.582082 100.193101 
2589.546532 100.189104 
2590.510981 100.184564 
2591.475430 100.180298 
2592.439880 100.176365 
2593.404329 100.171745 
2594.368778 100.166802 
2595.333228 100.161926 
2596.297677 100.158088 
2597.262126 100.154499 
2598.226576 100.150432 
2599.191025 100.145915 
2600.155475 100.141688 
2601.119924 100.137508 
2602.084373 100.134087 
2603.048823 100.130441 
2604.013272 100.127620 
2604.977721 100.124910 
2605.942171 100.121600 
2606.906620 100.118034 
2607.871069 100.115273 
2608.835519 100.113014 
2609.799968 100.110659 
2610.764418 100.107125 
2611.728867 100.103161 
2612.693316 100.099002 
2613.657766 100.095303 
2614.622215 100.091658 
2615.586664 100.088420 
2616.551114 100.085539 
2617.515563 100.082621 
2618.480012 100.079098 
2619.444462 100.074677 
2620.408911 100.069767 
2621.373360 100.065773 
2622.337810 100.061404 
2623.302259 100.056732 
2624.266709 100.052748 
2625.231158 100.049338 
2626.195607 100.045324 
2627.160057 100.041526 
2628.124506 100.038317 
2629.088955 100.035553 
2630.053405 100.032138 
2631.017854 100.028094 
2631.982303 100.024015 
2632.946753 100.020765 
2633.911202 100.017629 
2634.875652 100.014953 
2635.840101 100.011941 
2636.804550 100.008491 
2637.769000 100.005077 
2638.733449 100.002108 
2639.697898 99.999229 
2640.662348 99.996995 
2641.626797 99.994517 
2642.591246 99.991593 
2643.555696 99.987817 
2644.520145 99.984518 
2645.484594 99.981818 
2646.449044 99.979160 
2647.413493 99.975797 
2648.377943 99.972078 
2649.342392 99.967640 
2650.306841 99.963023 
2651.271291 99.958308 
2652.235740 99.953407 
2653.200189 99.949164 
2654.164639 99.945447 
2655.129088 99.940742 
2656.093537 99.936537 
2657.057987 99.933240 
2658.022436 99.930513 
2658.986886 99.927161 
2659.951335 99.923743 
2660.915784 99.920133 
2661.880234 99.916978 
2662.844683 99.914094 
2663.809132 99.911258 
2664.773582 99.907706 
2665.738031 99.903971 
2666.702480 99.900555 
2667.666930 99.897030 
2668.631379 99.892692 
2669.595828 99.888333 
2670.560278 99.884879 
2671.524727 99.881726 
2672.489177 99.877498 
2673.453626 99.873034 
2674.418075 99.868200 
2675.382525 99.863253 
2676.346974 99.857762 
2677.311423 99.852369 
2678.275873 99.847069 
2679.240322 99.842734 
2680.204771 99.838193 
2681.169221 99.832830 
2682.133670 99.827466 
2683.098120 99.823265 
2684.062569 99.818709 
2685.027018 99.813454 
2685.991468 99.808106 
2686.955917 99.803422 
2687.920366 99.798912 
2688.884816 99.794818 
2689.849265 99.790203 
2690.813714 99.785603 
2691.778164 99.781046 
2692.742613 99.776378 
2693.707062 99.771405 
2694.671512 99.766829 
2695.635961 99.761914 
2696.600411 99.757021 
2697.564860 99.751590 
2698.529309 99.746580 
2699.493759 99.742437 
2700.458208 99.737877 
2701.422657 99.732284 
2702.387107 99.726833 
2703.351556 99.721855 
2704.316005 99.716685 
2705.280455 99.710583 
2706.244904 99.704923 
2707.209354 99.699928 
2708.173803 99.695016 
2709.138252 99.690003 
2710.102702 99.685977 
2711.067151 99.682231 
2712.031600 99.678812 
2712.996050 99.674192 
2713.960499 99.669695 
2714.924948 99.665649 
2715.889398 99.661705 
2716.853847 99.657349 
2717.818296 99.652339 
2718.782746 99.648052 
2719.747195 99.645132 
2720.711645 99.641298 
2721.676094 99.636225 
2722.640543 99.630845 
2723.604993 99.626189 
2724.569442 99.621138 
2725.533891 99.615419 
2726.498341 99.609548 
2727.462790 99.604879 
2728.427239 99.600335 
2729.391689 99.595267 
2730.356138 99.589554 
2731.320588 99.584346 
2732.285037 99.579067 
2733.249486 99.573134 
2734.213936 99.566101 
2735.178385 99.559960 
2736.142834 99.554708 
2737.107284 99.549324 
2738.071733 99.543475 
2739.036182 99.538352 
2740.000632 99.533652 
2740.965081 99.528684 
2741.929530 99.523265 
2742.893980 99.518181 
2743.858429 99.513112 
2744.822879 99.508507 
2745.787328 99.503341 
2746.751777 99.498188 
2747.716227 99.492194 
2748.680676 99.485596 
2749.645125 99.478006 
2750.609575 99.469644 
2751.574024 99.461567 
2752.538473 99.454059 
2753.502923 99.446285 
2754.467372 99.439259 
2755.431822 99.433720 
2756.396271 99.429367 
2757.360720 99.424984 
2758.325170 99.420710 
2759.289619 99.416433 
2760.254068 99.413371 
2761.218518 99.410404 
2762.182967 99.407148 
2763.147416 99.403902 
2764.111866 99.401072 
2765.076315 99.398697 
2766.040764 99.395943 
2767.005214 99.392671 
2767.969663 99.390482 
2768.934113 99.388203 
2769.898562 99.385883 
2770.863011 99.383878 
2771.827461 99.382276 
2772.791910 99.380617 
2773.756359 99.378253 
2774.720809 99.374950 
2775.685258 99.371658 
2776.649707 99.368172 
2777.614157 99.364307 
2778.578606 99.358771 
2779.543056 99.352748 
2780.507505 99.346144 
2781.471954 99.339524 
2782.436404 99.332556 
2783.400853 99.325888 
2784.365302 99.320084 
2785.329752 99.315255 
2786.294201 99.310280 
2787.258650 99.305445 
2788.223100 99.300120 
2789.187549 99.294476 
2790.151998 99.288174 
2791.116448 99.281779 
2792.080897 99.275404 
2793.045347 99.270460 
2794.009796 99.265627 
2794.974245 99.259631 
2795.938695 99.253531 
2796.903144 99.248613 
2797.867593 99.244021 
2798.832043 99.238289 
2799.796492 99.232164 
2800.760941 99.226673 
2801.725391 99.221669 
2802.689840 99.217625 
2803.654290 99.212951 
2804.618739 99.208309 
2805.583188 99.203566 
2806.547638 99.197795 
2807.512087 99.191812 
2808.476536 99.186658 
2809.440986 99.182013 
2810.405435 99.177776 
2811.369884 99.172639 
2812.334334 99.167627 
2813.298783 99.162896 
2814.263232 99.158988 
2815.227682 99.154622 
2816.192131 99.150008 
2817.156581 99.145034 
2818.121030 99.139700 
2819.085479 99.133810 
2820.049929 99.127326 
2821.014378 99.120241 
2821.978827 99.113925 
2822.943277 99.107565 
2823.907726 99.101463 
2824.872175 99.095724 
2825.836625 99.090777 
2826.801074 99.085257 
2827.765524 99.079139 
2828.729973 99.073418 
2829.694422 99.068189 
2830.658872 99.063042 
2831.623321 99.057747 
2832.587770 99.052309 
2833.552220 99.048256 
2834.516669 99.045171 
2835.481118 99.043021 
2836.445568 99.040899 
2837.410017 99.039755 
2838.374466 99.039103 
2839.338916 99.038959 
2840.303365 99.039654 
2841.267815 99.041190 
2842.232264 99.043397 
2843.196713 99.045345 
2844.161163 99.045706 
2845.125612 99.046310 
2846.090061 99.047254 
2847.054511 99.048322 
2848.018960 99.047982 
2848.983409 99.046696 
2849.947859 99.045039 
2850.912308 99.043045 
2851.876758 99.039656 
2852.841207 99.035716 
2853.805656 99.031531 
2854.770106 99.026762 
2855.734555 99.020632 
2856.699004 99.013779 
2857.663454 99.005887 
2858.627903 98.997915 
2859.592352 98.989310 
2860.556802 98.980270 
2861.521251 98.970942 
2862.485700 98.961563 
2863.450150 98.951924 
2864.414599 98.942342 
2865.379049 98.932967 
2866.343498 98.925136 
2867.307947 98.917915 
2868.272397 98.911356 
2869.236846 98.904292 
2870.201295 98.897726 
2871.165745 98.891934 
2872.130194 98.886566 
2873.094643 98.880784 
2874.059093 98.875072 
2875.023542 98.869650 
2875.987992 98.864047 
2876.952441 98.857416 
2877.916890 98.851087 
2878.881340 98.845232 
2879.845789 98.840523 
2880.810238 98.835282 
2881.774688 98.829977 
2882.739137 98.824879 
2883.703586 98.820434 
2884.668036 98.816140 
2885.632485 98.812272 
2886.596934 98.808447 
2887.561384 98.804785 
2888.525833 98.800756 
2889.490283 98.796543 
2890.454732 98.792560 
2891.419181 98.789497 
2892.383631 98.785470 
2893.348080 98.780917 
2894.312529 98.775429 
2895.276979 98.769896 
2896.241428 98.765146 
2897.205877 98.761026 
2898.170327 98.756546 
2899.134776 98.752434 
2900.099226 98.748573 
2901.063675 98.744786 
2902.028124 98.740651 
2902.992574 98.737341 
2903.957023 98.734360 
2904.921472 98.731296 
2905.885922 98.727403 
2906.850371 98.723688 
2907.814820 98.720344 
2908.779270 98.717218 
2909.743719 98.713494 
2910.708168 98.710494 
2911.672618 98.707835 
2912.637067 98.704723 
2913.601517 98.699907 
2914.565966 98.695135 
2915.530415 98.691632 
2916.494865 98.688927 
2917.459314 98.684792 
2918.423763 98.679476 
2919.388213 98.673353 
2920.352662 98.666244 
2921.317111 98.657900 
2922.281561 98.648946 
2923.246010 98.639200 
2924.210460 98.628711 
2925.174909 98.616856 
2926.139358 98.604678 
2927.103808 98.591964 
2928.068257 98.579834 
2929.032706 98.567702 
2929.997156 98.555217 
2930.961605 98.542580 
2931.926054 98.530099 
2932.890504 98.517850 
2933.854953 98.505712 
2934.819402 98.493153 
2935.783852 98.481103 
2936.748301 98.469347 
2937.712751 98.457793 
2938.677200 98.446250 
2939.641649 98.435426 
2940.606099 98.425327 
2941.570548 98.415414 
2942.534997 98.404921 
2943.499447 98.394966 
2944.463896 98.384908 
2945.428345 98.375180 
2946.392795 98.365642 
2947.357244 98.356529 
2948.321694 98.348052 
2949.286143 98.339603 
2950.250592 98.329831 
2951.215042 98.320412 
2952.179491 98.311714 
2953.143940 98.303461 
2954.108390 98.295493 
2955.072839 98.287822 
2956.037288 98.279694 
2957.001738 98.271911 
2957.966187 98.264135 
2958.930636 98.256494 
2959.895086 98.249316 
2960.859535 98.242420 
2961.823985 98.235013 
2962.788434 98.227525 
2963.752883 98.220253 
2964.717333 98.213405 
2965.681782 98.206638 
2966.646231 98.199742 
2967.610681 98.192239 
2968.575130 98.185275 
2969.539579 98.178045 
2970.504029 98.169586 
2971.468478 98.159989 
2972.432928 98.151125 
2973.397377 98.142964 
2974.361826 98.134585 
2975.326276 98.125540 
2976.290725 98.117152 
2977.255174 98.108390 
2978.219624 98.099508 
2979.184073 98.090074 
2980.148522 98.080763 
2981.112972 98.072815 
2982.077421 98.065740 
2983.041870 98.057128 
2984.006320 98.048873 
2984.970769 98.041291 
2985.935219 98.033803 
2986.899668 98.025545 
2987.864117 98.016435 
2988.828567 98.007273 
2989.793016 97.999023 
2990.757465 97.990756 
2991.721915 97.982147 
2992.686364 97.973018 
2993.650813 97.963015 
2994.615263 97.953192 
2995.579712 97.944091 
2996.544162 97.935185 
2997.508611 97.927175 
2998.473060 97.918677 
2999.437510 97.909510 
3000.401959 97.900175 
3001.366408 97.891800 
3002.330858 97.882996 
3003.295307 97.873925 
3004.259756 97.865760 
3005.224206 97.859066 
3006.188655 97.851905 
3007.153104 97.843685 
3008.117554 97.834551 
3009.082003 97.825445 
3010.046453 97.816648 
3011.010902 97.808086 
3011.975351 97.799094 
3012.939801 97.790723 
3013.904250 97.781598 
3014.868699 97.770625 
3015.833149 97.759199 
3016.797598 97.749857 
3017.762047 97.740326 
3018.726497 97.730175 
3019.690946 97.720001 
3020.655396 97.710720 
3021.619845 97.701572 
3022.584294 97.691790 
3023.548744 97.680591 
3024.513193 97.669443 
3025.477642 97.657774 
3026.442092 97.646414 
3027.406541 97.635999 
3028.370990 97.625034 
3029.335440 97.613663 
3030.299889 97.603160 
3031.264338 97.591778 
3032.228788 97.579507 
3033.193237 97.568082 
3034.157687 97.558180 
3035.122136 97.547884 
3036.086585 97.537373 
3037.051035 97.526694 
3038.015484 97.515859 
3038.979933 97.503747 
3039.944383 97.490526 
3040.908832 97.478297 
3041.873281 97.468116 
3042.837731 97.458672 
3043.802180 97.448860 
3044.766630 97.438630 
3045.731079 97.428615 
3046.695528 97.417680 
3047.659978 97.406418 
3048.624427 97.397461 
3049.588876 97.389890 
3050.553326 97.380843 
3051.517775 97.372851 
3052.482224 97.365552 
3053.446674 97.358098 
3054.411123 97.349740 
3055.375572 97.341567 
3056.340022 97.332812 
3057.304471 97.324275 
3058.268921 97.315534 
3059.233370 97.307232 
3060.197819 97.298269 
3061.162269 97.287729 
3062.126718 97.276655 
3063.091167 97.266107 
3064.055617 97.255850 
3065.020066 97.245531 
3065.984515 97.235749 
3066.948965 97.227083 
3067.913414 97.217715 
3068.877864 97.208093 
3069.842313 97.198086 
3070.806762 97.187521 
3071.771212 97.176484 
3072.735661 97.166169 
3073.700110 97.157015 
3074.664560 97.147553 
3075.629009 97.136701 
3076.593458 97.125654 
3077.557908 97.113727 
3078.522357 97.100739 
3079.486806 97.086428 
3080.451256 97.073659 
3081.415705 97.063349 
3082.380155 97.052754 
3083.344604 97.040644 
3084.309053 97.029026 
3085.273503 97.016886 
3086.237952 97.004979 
3087.202401 96.993569 
3088.166851 96.983466 
3089.131300 96.973002 
3090.095749 96.962095 
3091.060199 96.949963 
3092.024648 96.937500 
3092.989098 96.924397 
3093.953547 96.910908 
3094.917996 96.897649 
3095.882446 96.885784 
3096.846895 96.874685 
3097.811344 96.862537 
3098.775794 96.848639 
3099.740243 96.835787 
3100.704692 96.823882 
3101.669142 96.810904 
3102.633591 96.796909 
3103.598040 96.784763 
3104.562490 96.772987 
3105.526939 96.759423 
3106.491389 96.745759 
3107.455838 96.734233 
3108.420287 96.721856 
3109.384737 96.707678 
3110.349186 96.692156 
3111.313635 96.677210 
3112.278085 96.663185 
3113.242534 96.650357 
3114.206983 96.636410 
3115.171433 96.620792 
3116.135882 96.603412 
3117.100332 96.586591 
3118.064781 96.570628 
3119.029230 96.555332 
3119.993680 96.540025 
3120.958129 96.524455 
3121.922578 96.506663 
3122.887028 96.487778 
3123.851477 96.469550 
3124.815926 96.452572 
3125.780376 96.434784 
3126.744825 96.416880 
3127.709274 96.399473 
3128.673724 96.382392 
3129.638173 96.364452 
3130.602623 96.345525 
3131.567072 96.326641 
3132.531521 96.310110 
3133.495971 96.293618 
3134.460420 96.275505 
3135.424869 96.258108 
3136.389319 96.242211 
3137.353768 96.224943 
3138.318217 96.207619 
3139.282667 96.192012 
3140.247116 96.177554 
3141.211566 96.160407 
3142.176015 96.141835 
3143.140464 96.123872 
3144.104914 96.106831 
3145.069363 96.089861 
3146.033812 96.073078 
3146.998262 96.055401 
3147.962711 96.037030 
3148.927160 96.018340 
3149.891610 96.001312 
3150.856059 95.983800 
3151.820508 95.965521 
3152.784958 95.947150 
3153.749407 95.929326 
3154.713857 95.911163 
3155.678306 95.893498 
3156.642755 95.875888 
3157.607205 95.857330 
3158.571654 95.838855 
3159.536103 95.821723 
3160.500553 95.802845 
3161.465002 95.780985 
3162.429451 95.759752 
3163.393901 95.740976 
3164.358350 95.722642 
3165.322800 95.704687 
3166.287249 95.686333 
3167.251698 95.667543 
3168.216148 95.647678 
3169.180597 95.628203 
3170.145046 95.609477 
3171.109496 95.591175 
3172.073945 95.572384 
3173.038394 95.553650 
3174.002844 95.534228 
3174.967293 95.515062 
3175.931742 95.495605 
3176.896192 95.476172 
3177.860641 95.456813 
3178.825091 95.436791 
3179.789540 95.415324 
3180.753989 95.393890 
3181.718439 95.371577 
3182.682888 95.349012 
3183.647337 95.325951 
3184.611787 95.304001 
3185.576236 95.281805 
3186.540685 95.260489 
3187.505135 95.239075 
3188.469584 95.217085 
3189.434034 95.194588 
3190.398483 95.172084 
3191.362932 95.149019 
3192.327382 95.124146 
3193.291831 95.096805 
3194.256280 95.071846 
3195.220730 95.051225 
3196.185179 95.030646 
3197.149628 95.006434 
3198.114078 94.981734 
3199.078527 94.957803 
3200.042976 94.933953 
3201.007426 94.910306 
3201.971875 94.887375 
3202.936325 94.863769 
3203.900774 94.840526 
3204.865223 94.817693 
3205.829673 94.795606 
3206.794122 94.772977 
3207.758571 94.749954 
3208.723021 94.726111 
3209.687470 94.702293 
3210.651919 94.678839 
3211.616369 94.655598 
3212.580818 94.631298 
3213.545268 94.606941 
3214.509717 94.582947 
3215.474166 94.560044 
3216.438616 94.536676 
3217.403065 94.514095 
3218.367514 94.491513 
3219.331964 94.469136 
3220.296413 94.445413 
3221.260862 94.421628 
3222.225312 94.397888 
3223.189761 94.372573 
3224.154210 94.345718 
3225.118660 94.319187 
3226.083109 94.294459 
3227.047559 94.271429 
3228.012008 94.245415 
3228.976457 94.217879 
3229.940907 94.192113 
3230.905356 94.169759 
3231.869805 94.148125 
3232.834255 94.125749 
3233.798704 94.102717 
3234.763153 94.079595 
3235.727603 94.057859 
3236.692052 94.036624 
3237.656502 94.013113 
3238.620951 93.990619 
3239.585400 93.968611 
3240.549850 93.946348 
3241.514299 93.924035 
3242.478748 93.901792 
3243.443198 93.878989 
3244.407647 93.855846 
3245.372096 93.831979 
3246.336546 93.808958 
3247.300995 93.786379 
3248.265444 93.762556 
3249.229894 93.737580 
3250.194343 93.713503 
3251.158793 93.688505 
3252.123242 93.662657 
3253.087691 93.636657 
3254.052141 93.611271 
3255.016590 93.586080 
3255.981039 93.560159 
3256.945489 93.533121 
3257.909938 93.507877 
3258.874387 93.483715 
3259.838837 93.458569 
3260.803286 93.434406 
3261.767736 93.414182 
3262.732185 93.394754 
3263.696634 93.374239 
3264.661084 93.352494 
3265.625533 93.330168 
3266.589982 93.306698 
3267.554432 93.283570 
3268.518881 93.260202 
3269.483330 93.235936 
3270.447780 93.212467 
3271.412229 93.190550 
3272.376678 93.166701 
3273.341128 93.142423 
3274.305577 93.117381 
3275.270027 93.090461 
3276.234476 93.062574 
3277.198925 93.036113 
3278.163375 93.011209 
3279.127824 92.986670 
3280.092273 92.961036 
3281.056723 92.933747 
3282.021172 92.905757 
3282.985621 92.878050 
3283.950071 92.849396 
3284.914520 92.820441 
3285.878970 92.790794 
3286.843419 92.761117 
3287.807868 92.731612 
3288.772318 92.701933 
3289.736767 92.672555 
3290.701216 92.645053 
3291.665666 92.615597 
3292.630115 92.585030 
3293.594564 92.556346 
3294.559014 92.527818 
3295.523463 92.497087 
3296.487912 92.464568 
3297.452362 92.431777 
3298.416811 92.400439 
3299.381261 92.368772 
3300.345710 92.336811 
3301.310159 92.303710 
3302.274609 92.269505 
3303.239058 92.233798 
3304.203507 92.196461 
3305.167957 92.158211 
3306.132406 92.119871 
3307.096855 92.079513 
3308.061305 92.039170 
3309.025754 91.999850 
3309.990204 91.960896 
3310.954653 91.922404 
3311.919102 91.883860 
3312.883552 91.843484 
3313.848001 91.802247 
3314.812450 91.761935 
3315.776900 91.722375 
3316.741349 91.681871 
3317.705798 91.640201 
3318.670248 91.598689 
3319.634697 91.557773 
3320.599146 91.516548 
3321.563596 91.477530 
3322.528045 91.438580 
3323.492495 91.398424 
3324.456944 91.357082 
3325.421393 91.316105 
3326.385843 91.275394 
3327.350292 91.234897 
3328.314741 91.194237 
3329.279191 91.153579 
3330.243640 91.113841 
3331.208089 91.074122 
3332.172539 91.031025 
3333.136988 90.986667 
3334.101438 90.942194 
3335.065887 90.897944 
3336.030336 90.853942 
3336.994786 90.809158 
3337.959235 90.762517 
3338.923684 90.715041 
3339.888134 90.666936 
3340.852583 90.620018 
3341.817032 90.573867 
3342.781482 90.528486 
3343.745931 90.483896 
3344.710380 90.438988 
3345.674830 90.392397 
3346.639279 90.347243 
3347.603729 90.302378 
3348.568178 90.256415 
3349.532627 90.209171 
3350.497077 90.162196 
3351.461526 90.116989 
3352.425975 90.073949 
3353.390425 90.032793 
3354.354874 89.994785 
3355.319323 89.956506 
3356.283773 89.918110 
3357.248222 89.878846 
3358.212672 89.839262 
3359.177121 89.800402 
3360.141570 89.762371 
3361.106020 89.725060 
3362.070469 89.688274 
3363.034918 89.651315 
3363.999368 89.615798 
3364.963817 89.580896 
3365.928266 89.547391 
3366.892716 89.513672 
3367.857165 89.478967 
3368.821614 89.443906 
3369.786064 89.409202 
3370.750513 89.375882 
3371.714963 89.344829 
3372.679412 89.314171 
3373.643861 89.285563 
3374.608311 89.257703 
3375.572760 89.227606 
3376.537209 89.196464 
3377.501659 89.169948 
3378.466108 89.147363 
3379.430557 89.127150 
3380.395007 89.104803 
3381.359456 89.083564 
3382.323906 89.066037 
3383.288355 89.051479 
3384.252804 89.039205 
3385.217254 89.029858 
3386.181703 89.021586 
3387.146152 89.014038 
3388.110602 89.006289 
3389.075051 88.998873 
3390.039500 88.990423 
3391.003950 88.980472 
3391.968399 88.970502 
3392.932848 88.962959 
3393.897298 88.956778 
3394.861747 88.950023 
3395.826197 88.942503 
3396.790646 88.936074 
3397.755095 88.928257 
3398.719545 88.918928 
3399.683994 88.908358 
3400.648443 88.899127 
3401.612893 88.892465 
3402.577342 88.885804 
3403.541791 88.873668 
3404.506241 88.859171 
3405.470690 88.846852 
3406.435140 88.838084 
3407.399589 88.830085 
3408.364038 88.821558 
3409.328488 88.815357 
3410.292937 88.812218 
3411.257386 88.806453 
3412.221836 88.798596 
3413.186285 88.789533 
3414.150734 88.782091 
3415.115184 88.776549 
3416.079633 88.771552 
3417.044082 88.766608 
3418.008532 88.763434 
3418.972981 88.760843 
3419.937431 88.757953 
3420.901880 88.754874 
3421.866329 88.752683 
3422.830779 88.750727 
3423.795228 88.749902 
3424.759677 88.750474 
3425.724127 88.749381 
3426.688576 88.747517 
3427.653025 88.750472 
3428.617475 88.755829 
3429.581924 88.757394 
3430.546374 88.749673 
3431.510823 88.747683 
3432.475272 88.755162 
3433.439722 88.765034 
3434.404171 88.773773 
3435.368620 88.780813 
3436.333070 88.786995 
3437.297519 88.798304 
3438.261968 88.812796 
3439.226418 88.826139 
3440.190867 88.838059 
3441.155316 88.848614 
3442.119766 88.859047 
3443.084215 88.871682 
3444.048665 88.884813 
3445.013114 88.897417 
3445.977563 88.907862 
3446.942013 88.920478 
3447.906462 88.937635 
3448.870911 88.955742 
3449.835361 88.970946 
3450.799810 88.986548 
3451.764259 89.004535 
3452.728709 89.024488 
3453.693158 89.044616 
3454.657608 89.066195 
3455.622057 89.089328 
3456.586506 89.111096 
3457.550956 89.129008 
3458.515405 89.145571 
3459.479854 89.166457 
3460.444304 89.189589 
3461.408753 89.209287 
3462.373202 89.226884 
3463.337652 89.246144 
3464.302101 89.275375 
3465.266550 89.301591 
3466.231000 89.322818 
3467.195449 89.348792 
3468.159899 89.374838 
3469.124348 89.398450 
3470.088797 89.421519 
3471.053247 89.441216 
3472.017696 89.460342 
3472.982145 89.483538 
3473.946595 89.507603 
3474.911044 89.531467 
3475.875493 89.556053 
3476.839943 89.578593 
3477.804392 89.599343 
3478.768842 89.618591 
3479.733291 89.638385 
3480.697740 89.660340 
3481.662190 89.684751 
3482.626639 89.709364 
3483.591088 89.737662 
3484.555538 89.767437 
3485.519987 89.789722 
3486.484436 89.802177 
3487.448886 89.816859 
3488.413335 89.839135 
3489.377784 89.865224 
3490.342234 89.894876 
3491.306683 89.927126 
3492.271133 89.952807 
3493.235582 89.972117 
3494.200031 89.997004 
3495.164481 90.023240 
3496.128930 90.047560 
3497.093379 90.074379 
3498.057829 90.104881 
3499.022278 90.140472 
3499.986727 90.176000 
3500.951177 90.204062 
3501.915626 90.228144 
3502.880076 90.251545 
3503.844525 90.278308 
3504.808974 90.309133 
3505.773424 90.332596 
3506.737873 90.343446 
3507.702322 90.357401 
3508.666772 90.377051 
3509.631221 90.395273 
3510.595670 90.407703 
3511.560120 90.418649 
3512.524569 90.434433 
3513.489018 90.458932 
3514.453468 90.485636 
3515.417917 90.509851 
3516.382367 90.534013 
3517.346816 90.555636 
3518.311265 90.574363 
3519.275715 90.590104 
3520.240164 90.613156 
3521.204613 90.649172 
3522.169063 90.686516 
3523.133512 90.719473 
3524.097961 90.748029 
3525.062411 90.775133 
3526.026860 90.810593 
3526.991310 90.855160 
3527.955759 90.895118 
3528.920208 90.930481 
3529.884658 90.962594 
3530.849107 90.989028 
3531.813556 91.015342 
3532.778006 91.043450 
3533.742455 91.075081 
3534.706904 91.105362 
3535.671354 91.130201 
3536.635803 91.153371 
3537.600252 91.170749 
3538.564702 91.184439 
3539.529151 91.204887 
3540.493601 91.236919 
3541.458050 91.271057 
3542.422499 91.301922 
3543.386949 91.330670 
3544.351398 91.366987 
3545.315847 91.410679 
3546.280297 91.456683 
3547.244746 91.507711 
3548.209195 91.565782 
3549.173645 91.618071 
3550.138094 91.652369 
3551.102544 91.669490 
3552.066993 91.680253 
3553.031442 91.707126 
3553.995892 91.743454 
3554.960341 91.779146 
3555.924790 91.815367 
3556.889240 91.853288 
3557.853689 91.890483 
3558.818138 91.927641 
3559.782588 91.963435 
3560.747037 91.997420 
3561.711486 92.034288 
3562.675936 92.072533 
3563.640385 92.112438 
3564.604835 92.161764 
3565.569284 92.214148 
3566.533733 92.265146 
3567.498183 92.317612 
3568.462632 92.379397 
3569.427081 92.448667 
3570.391531 92.510268 
3571.355980 92.561988 
3572.320429 92.607495 
3573.284879 92.661762 
3574.249328 92.725319 
3575.213778 92.791364 
3576.178227 92.856039 
3577.142676 92.923475 
3578.107126 92.989291 
3579.071575 93.046698 
3580.036024 93.106366 
3581.000474 93.157259 
3581.964923 93.191116 
3582.929372 93.218821 
3583.893822 93.249138 
3584.858271 93.289982 
3585.822720 93.341571 
3586.787170 93.392045 
3587.751619 93.451536 
3588.716069 93.516793 
3589.680518 93.582327 
3590.644967 93.646997 
3591.609417 93.711594 
3592.573866 93.764984 
3593.538315 93.824762 
3594.502765 93.894404 
3595.467214 93.957768 
3596.431663 94.015650 
3597.396113 94.077465 
3598.360562 94.139076 
3599.325012 94.211367 
3600.289461 94.292067 
3601.253910 94.367712 
3602.218360 94.423886 
3603.182809 94.456539 
3604.147258 94.491164 
3605.111708 94.540740 
3606.076157 94.604657 
3607.040606 94.670411 
3608.005056 94.735873 
3608.969505 94.801671 
3609.933954 94.876318 
3610.898404 94.957137 
3611.862853 95.019025 
3612.827303 95.047132 
3613.791752 95.084876 
3614.756201 95.132192 
3615.720651 95.183554 
3616.685100 95.228232 
3617.649549 95.273112 
3618.613999 95.329898 
3619.578448 95.392003 
3620.542897 95.456812 
3621.507347 95.517504 
3622.471796 95.573139 
3623.436246 95.625674 
3624.400695 95.676337 
3625.365144 95.724625 
3626.329594 95.783753 
3627.294043 95.842170 
3628.258492 95.894829 
3629.222942 95.951880 
3630.187391 96.013918 
3631.151840 96.077556 
3632.116290 96.144856 
3633.080739 96.191353 
3634.045188 96.213393 
3635.009638 96.230859 
3635.974087 96.254264 
3636.938537 96.293755 
3637.902986 96.343869 
3638.867435 96.392550 
3639.831885 96.433513 
3640.796334 96.476719 
3641.760783 96.518690 
3642.725233 96.553840 
3643.689682 96.572887 
3644.654131 96.569990 
3645.618581 96.569504 
3646.583030 96.607841 
3647.547480 96.642360 
3648.511929 96.670281 
3649.476378 96.697669 
3650.440828 96.734604 
3651.405277 96.781821 
3652.369726 96.824189 
3653.334176 96.856106 
3654.298625 96.877416 
3655.263074 96.908785 
3656.227524 96.946656 
3657.191973 96.987958 
3658.156422 97.022669 
3659.120872 97.033010 
3660.085321 97.052064 
3661.049771 97.072451 
3662.014220 97.084897 
3662.978669 97.084975 
3663.943119 97.080806 
3664.907568 97.072522 
3665.872017 97.055855 
3666.836467 97.043789 
3667.800916 97.045480 
3668.765365 97.053180 
3669.729815 97.062199 
3670.694264 97.069578 
3671.658714 97.065427 
3672.623163 97.059098 
3673.587612 97.056140 
3674.552062 97.043955 
3675.516511 97.035381 
3676.480960 97.032273 
3677.445410 97.032092 
3678.409859 97.035207 
3679.374308 97.041114 
3680.338758 97.050074 
3681.303207 97.062987 
3682.267656 97.081393 
3683.232106 97.102094 
3684.196555 97.115953 
3685.161005 97.114962 
3686.125454 97.110915 
3687.089903 97.113693 
3688.054353 97.127985 
3689.018802 97.136078 
3689.983251 97.137279 
3690.947701 97.129621 
3691.912150 97.118248 
3692.876599 97.128756 
3693.841049 97.136202 
3694.805498 97.130098 
3695.769948 97.113404 
3696.734397 97.107641 
3697.698846 97.102763 
3698.663296 97.097622 
3699.627745 97.097721 
3700.592194 97.101803 
3701.556644 97.107002 
3702.521093 97.108123 
3703.485542 97.107382 
3704.449992 97.101848 
3705.414441 97.091837 
3706.378890 97.078256 
3707.343340 97.070049 
3708.307789 97.070749 
3709.272239 97.067648 
3710.236688 97.059736 
3711.201137 97.053904 
3712.165587 97.051230 
3713.130036 97.054764 
3714.094485 97.062178 
3715.058935 97.066569 
3716.023384 97.068239 
3716.987833 97.071879 
3717.952283 97.065713 
3718.916732 97.052941 
3719.881182 97.038323 
3720.845631 97.020308 
3721.810080 97.004230 
3722.774530 96.992976 
3723.738979 96.980731 
3724.703428 96.966445 
3725.667878 96.958481 
3726.632327 96.954241 
3727.596776 96.929035 
3728.561226 96.893441 
3729.525675 96.881252 
3730.490124 96.870636 
3731.454574 96.867131 
3732.419023 96.866395 
3733.383473 96.864196 
3734.347922 96.859613 
3735.312371 96.840399 
3736.276821 96.824374 
3737.241270 96.814808 
3738.205719 96.806833 
3739.170169 96.804625 
3740.134618 96.805811 
3741.099067 96.810183 
3742.063517 96.813070 
3743.027966 96.810606 
3743.992416 96.817924 
3744.956865 96.832847 
3745.921314 96.851288 
3746.885764 96.871472 
3747.850213 96.889351 
3748.814662 96.902356 
3749.779112 96.912573 
3750.743561 96.914673 
3751.708010 96.918232 
3752.672460 96.926251 
3753.636909 96.928626 
3754.601358 96.938166 
3755.565808 96.951625 
3756.530257 96.965510 
3757.494707 96.982039 
3758.459156 96.998605 
3759.423605 97.004921 
3760.388055 97.000763 
3761.352504 97.003537 
3762.316953 97.015306 
3763.281403 97.013064 
3764.245852 97.009950 
3765.210301 97.000160 
3766.174751 96.988098 
3767.139200 96.970230 
3768.103650 96.943100 
3769.068099 96.931079 
3770.032548 96.926908 
3770.996998 96.918264 
3771.961447 96.908234 
3772.925896 96.898436 
3773.890346 96.889481 
3774.854795 96.874974 
3775.819244 96.861702 
3776.783694 96.862149 
3777.748143 96.867696 
3778.712592 96.872805 
3779.677042 96.871092 
3780.641491 96.862846 
3781.605941 96.857678 
3782.570390 96.862102 
3783.534839 96.868478 
3784.499289 96.856811 
3785.463738 96.826950 
3786.428187 96.802470 
3787.392637 96.794017 
3788.357086 96.791336 
3789.321535 96.788027 
3790.285985 96.772793 
3791.250434 96.757449 
3792.214884 96.747006 
3793.179333 96.736683 
3794.143782 96.722651 
3795.108232 96.705833 
3796.072681 96.696263 
3797.037130 96.699647 
3798.001580 96.703395 
3798.966029 96.697783 
3799.930478 96.679159 
3800.894928 96.668212 
3801.859377 96.666956 
3802.823826 96.672519 
3803.788276 96.670228 
3804.752725 96.648018 
3805.717175 96.635374 
3806.681624 96.630711 
3807.646073 96.630209 
3808.610523 96.633160 
3809.574972 96.634456 
3810.539421 96.631002 
3811.503871 96.626564 
3812.468320 96.623855 
3813.432769 96.629720 
3814.397219 96.636205 
3815.361668 96.633998 
3816.326118 96.629450 
3817.290567 96.615349 
3818.255016 96.603218 
3819.219466 96.610512 
3820.183915 96.618481 
3821.148364 96.610421 
3822.112814 96.592246 
3823.077263 96.567710 
3824.041712 96.550099 
3825.006162 96.542798 
3825.970611 96.535876 
3826.935060 96.524078 
3827.899510 96.512887 
3828.863959 96.507807 
3829.828409 96.504070 
3830.792858 96.496579 
3831.757307 96.483798 
3832.721757 96.478017 
3833.686206 96.488695 
3834.650655 96.498121 
3835.615105 96.502888 
3836.579554 96.479785 
3837.544003 96.436038 
3838.508453 96.427117 
3839.472902 96.417307 
3840.437352 96.399806 
3841.401801 96.383528 
3842.366250 96.371392 
3843.330700 96.367000 
3844.295149 96.369778 
3845.259598 96.371499 
3846.224048 96.376128 
3847.188497 96.376849 
3848.152946 96.368414 
3849.117396 96.363517 
3850.081845 96.362460 
3851.046294 96.365411 
3852.010744 96.371108 
3852.975193 96.355129 
3853.939643 96.325786 
3854.904092 96.312362 
3855.868541 96.302451 
3856.832991 96.290515 
3857.797440 96.276654 
3858.761889 96.263319 
3859.726339 96.251638 
3860.690788 96.251566 
3861.655237 96.263529 
3862.619687 96.277489 
3863.584136 96.283294 
3864.548586 96.286813 
3865.513035 96.295533 
3866.477484 96.303387 
3867.441934 96.306682 
3868.406383 96.293193 
3869.370832 96.253358 
3870.335282 96.225891 
3871.299731 96.225648 
3872.264180 96.220805 
3873.228630 96.218928 
3874.193079 96.220090 
3875.157528 96.216591 
3876.121978 96.213621 
3877.086427 96.208386 
3878.050877 96.203447 
3879.015326 96.203113 
3879.979775 96.200019 
3880.944225 96.196896 
3881.908674 96.202741 
3882.873123 96.212196 
3883.837573 96.216392 
3884.802022 96.207806 
3885.766471 96.189235 
3886.730921 96.180199 
3887.695370 96.172088 
3888.659820 96.151570 
3889.624269 96.124106 
3890.588718 96.102246 
3891.553168 96.093834 
3892.517617 96.087639 
3893.482066 96.084232 
3894.446516 96.081452 
3895.410965 96.072360 
3896.375414 96.060272 
3897.339864 96.059104 
3898.304313 96.064464 
3899.268762 96.064389 
3900.233212 96.058690 
3901.197661 96.048344 
3902.162111 96.039726 
3903.126560 96.040208 
3904.091009 96.040967 
3905.055459 96.044727 
3906.019908 96.046291 
3906.984357 96.041755 
3907.948807 96.036664 
3908.913256 96.038637 
3909.877705 96.044213 
3910.842155 96.054179 
3911.806604 96.065954 
3912.771054 96.076378 
3913.735503 96.085188 
3914.699952 96.088718 
3915.664402 96.087829 
3916.628851 96.083305 
3917.593300 96.070334 
3918.557750 96.056790 
3919.522199 96.043570 
3920.486648 96.026100 
3921.451098 96.013956 
3922.415547 96.006753 
3923.379996 96.006935 
3924.344446 96.010601 
3925.308895 96.013460 
3926.273345 96.012543 
3927.237794 96.011528 
3928.202243 96.012140 
3929.166693 96.015808 
3930.131142 96.019142 
3931.095591 96.018938 
3932.060041 96.014484 
3933.024490 96.006746 
3933.988939 96.000958 
3934.953389 95.995660 
3935.917838 95.988266 
3936.882288 95.985838 
3937.846737 95.986074 
3938.811186 95.983232 
3939.775636 95.979097 
3940.740085 95.975758 
3941.704534 95.977092 
3942.668984 95.983139 
3943.633433 95.987235 
3944.597882 95.986191 
3945.562332 95.981575 
3946.526781 95.980326 
3947.491230 95.977842 
3948.455680 95.973647 
3949.420129 95.972490 
3950.384579 95.973697 
3951.349028 95.975351 
3952.313477 95.974586 
3953.277927 95.973446 
3954.242376 95.974408 
3955.206825 95.974790 
3956.171275 95.976203 
3957.135724 95.976070 
3958.100173 95.970162 
3959.064623 95.962033 
3960.029072 95.958729 
3960.993522 95.958041 
3961.957971 95.955531 
3962.922420 95.949172 
3963.886870 95.941921 
3964.851319 95.933527 
3965.815768 95.922821 
3966.780218 95.914511 
3967.744667 95.908311 
3968.709116 95.900884 
3969.673566 95.895837 
3970.638015 95.891937 
3971.602464 95.887954 
3972.566914 95.883033 
3973.531363 95.876289 
3974.495813 95.869935 
3975.460262 95.865391 
3976.424711 95.858757 
3977.389161 95.850102 
3978.353610 95.842328 
3979.318059 95.839345 
3980.282509 95.835961 
3981.246958 95.830784 
3982.211407 95.825038 
3983.175857 95.818808 
3984.140306 95.811055 
3985.104756 95.802482 
3986.069205 95.796747 
3987.033654 95.791269 
3987.998104 95.783703 
3988.962553 95.777664 
3989.927002 95.771629 
3990.891452 95.763864 
3991.855901 95.757974 
3992.820350 95.755048 
3993.784800 95.752084 
3994.749249 95.747180 
3995.713698 95.741856 
3996.678148 95.737154 
3997.642597 95.731631 
3998.607047 95.726887 
3999.571496 95.724159 
4000.535945 95.722117 