##YUNITS=%T
399.282035 36.440859 
400.246484 36.143557 
401.210934 35.753499 
402.175383 34.547947 
403.139832 33.631475 
404.104282 33.239150 
405.068731 33.183933 
406.033181 32.945265 
406.997630 32.246693 
407.962079 31.551120 
408.926529 31.010922 
409.890978 30.593109 
410.855427 30.176554 
411.819877 29.653630 
412.784326 29.053498 
413.748775 28.475391 
414.713225 27.997110 
415.677674 27.615665 
416.642124 27.241749 
417.606573 27.065336 
418.571022 26.916544 
419.535472 26.490715 
420.499921 25.867479 
421.464370 25.188517 
422.428820 24.555492 
423.393269 24.197602 
424.357718 24.103307 
425.322168 23.920706 
426.286617 23.418997 
427.251066 22.702128 
428.215516 22.365328 
429.179965 22.334937 
430.144415 22.303768 
431.108864 22.259565 
432.073313 22.087745 
433.037763 21.911463 
434.002212 21.672713 
434.966661 21.408240 
435.931111 22.088519 
436.895560 22.813834 
437.860009 23.202547 
438.824459 23.184194 
439.788908 23.199811 
440.753358 23.656026 
441.717807 24.135397 
442.682256 24.502166 
443.646706 24.757723 
444.611155 24.963901 
445.575604 25.232741 
446.540054 25.563049 
447.504503 25.925661 
448.468952 26.244392 
449.433402 26.505525 
450.397851 26.779066 
451.362300 27.093567 
452.326750 27.400644 
453.291199 27.609129 
454.255649 27.735556 
455.220098 27.901078 
456.184547 28.090338 
457.148997 28.232537 
458.113446 28.323143 
459.077895 28.380566 
460.042345 28.429732 
461.006794 28.495199 
461.971243 28.573960 
462.935693 28.641876 
463.900142 28.667338 
464.864592 28.657006 
465.829041 28.646075 
466.793490 28.604358 
467.757940 28.529318 
468.722389 28.434973 
469.686838 28.310809 
470.651288 28.184941 
471.615737 28.041383 
472.580186 27.879178 
473.544636 27.681901 
474.509085 27.456080 
475.473534 27.298932 
476.437984 27.162783 
477.402433 27.015155 
478.366883 26.862377 
479.331332 26.706834 
480.295781 26.592513 
481.260231 26.491545 
482.224680 26.403578 
483.189129 26.304203 
484.153579 26.183517 
485.118028 26.044406 
486.082477 25.909236 
487.046927 25.844441 
488.011376 25.847645 
488.975826 25.866245 
489.940275 25.867448 
490.904724 25.860876 
491.869174 25.857541 
492.833623 25.911948 
493.798072 26.042746 
494.762522 26.178369 
495.726971 26.308620 
496.691420 26.473117 
497.655870 26.662917 
498.620319 26.903157 
499.584768 27.191511 
500.549218 27.517172 
501.513667 27.843140 
502.478117 28.171552 
503.442566 28.551144 
504.407015 28.976233 
505.371465 29.430682 
506.335914 29.882608 
507.300363 30.321495 
508.264813 30.765443 
509.229262 31.215282 
510.193711 31.697185 
511.158161 32.184662 
512.122610 32.663938 
513.087060 33.147523 
514.051509 33.636459 
515.015958 34.151259 
515.980408 34.679133 
516.944857 35.198868 
517.909306 35.720634 
518.873756 36.235935 
519.838205 36.763693 
520.802654 37.284131 
521.767104 37.781029 
522.731553 38.250736 
523.696002 38.706197 
524.660452 39.177853 
525.624901 39.692815 
526.589351 40.205929 
527.553800 40.697730 
528.518249 41.210580 
529.482699 41.753786 
530.447148 42.305507 
531.411597 42.878884 
532.376047 43.463720 
533.340496 44.032653 
534.304945 44.578061 
535.269395 45.120173 
536.233844 45.652477 
537.198294 46.183771 
538.162743 46.700287 
539.127192 47.180026 
540.091642 47.671487 
541.056091 48.173886 
542.020540 48.667192 
542.984990 49.166920 
543.949439 49.670589 
544.913888 50.192216 
545.878338 50.724685 
546.842787 51.241451 
547.807236 51.760698 
548.771686 52.279285 
549.736135 52.794512 
550.700585 53.305855 
551.665034 53.791488 
552.629483 54.274297 
553.593933 54.755715 
554.558382 55.236361 
555.522831 55.709752 
556.487281 56.164631 
557.451730 56.619303 
558.416179 57.094304 
559.380629 57.586815 
560.345078 58.099390 
561.309528 58.607246 
562.273977 59.108652 
563.238426 59.621441 
564.202876 60.162501 
565.167325 60.732897 
566.131774 61.329454 
567.096224 61.961463 
568.060673 62.610753 
569.025122 63.269003 
569.989572 63.954823 
570.954021 64.648179 
571.918470 65.362483 
572.882920 66.105444 
573.847369 66.865267 
574.811819 67.652065 
575.776268 68.458205 
576.740717 69.280422 
577.705167 70.095659 
578.669616 70.902494 
579.634065 71.716361 
580.598515 72.559102 
581.562964 73.401686 
582.527413 74.220587 
583.491863 74.995290 
584.456312 75.737755 
585.420762 76.458547 
586.385211 77.166851 
587.349660 77.854099 
588.314110 78.504976 
589.278559 79.122170 
590.243008 79.714473 
591.207458 80.276592 
592.171907 80.808690 
593.136356 81.318712 
594.100806 81.797260 
595.065255 82.248161 
596.029704 82.691470 
596.994154 83.119526 
597.958603 83.519075 
598.923053 83.895554 
599.887502 84.249654 
600.851951 84.575896 
601.816401 84.888757 
602.780850 85.182264 
603.745299 85.463423 
604.709749 85.733345 
605.674198 85.978686 
606.638647 86.218834 
607.603097 86.449149 
608.567546 86.672989 
609.531996 86.907447 
610.496445 87.130971 
611.460894 87.355852 
612.425344 87.572479 
613.389793 87.784975 
614.354242 87.998710 
615.318692 88.204842 
616.283141 88.398906 
617.247590 88.582222 
618.212040 88.748862 
619.176489 88.907269 
620.140938 89.059374 
621.105388 89.210054 
622.069837 89.356823 
623.034287 89.502630 
623.998736 89.643553 
624.963185 89.783800 
625.927635 89.920060 
626.892084 90.049132 
627.856533 90.175913 
628.820983 90.304557 
629.785432 90.426926 
630.749881 90.537424 
631.714331 90.645665 
632.678780 90.749964 
633.643230 90.845768 
634.607679 90.942893 
635.572128 91.023387 
636.536578 91.090393 
637.501027 91.149489 
638.465476 91.206368 
639.429926 91.264106 
640.394375 91.317453 
641.358824 91.378943 
642.323274 91.442869 
643.287723 91.505624 
644.252172 91.567507 
645.216622 91.627223 
646.181071 91.689448 
647.145521 91.743899 
648.109970 91.784262 
649.074419 91.832096 
650.038869 91.879222 
651.003318 91.930597 
651.967767 91.978095 
652.932217 92.014893 
653.896666 92.046776 
654.861115 92.079110 
655.825565 92.115889 
656.790014 92.158707 
657.754464 92.207740 
658.718913 92.260789 
659.683362 92.313564 
660.647812 92.355452 
661.612261 92.395081 
662.576710 92.439944 
663.541160 92.483256 
664.505609 92.524415 
665.470058 92.557456 
666.434508 92.575982 
667.398957 92.589979 
668.363406 92.590675 
669.327856 92.590232 
670.292305 92.603473 
671.256755 92.621088 
672.221204 92.646595 
673.185653 92.677178 
674.150103 92.705743 
675.114552 92.726128 
676.079001 92.748440 
677.043451 92.781676 
678.007900 92.821237 
678.972349 92.866682 
679.936799 92.911928 
680.901248 92.961888 
681.865698 93.018203 
682.830147 93.063448 
683.794596 93.116755 
684.759046 93.166229 
685.723495 93.193583 
686.687944 93.229276 
687.652394 93.258307 
688.616843 93.281039 
689.581292 93.301671 
690.545742 93.309200 
691.510191 93.322458 
692.474640 93.330828 
693.439090 93.341340 
694.403539 93.364944 
695.367989 93.385488 
696.332438 93.396468 
697.296887 93.401351 
698.261337 93.411665 
699.225786 93.430037 
700.190235 93.462519 
701.154685 93.500579 
702.119134 93.535480 
703.083583 93.571053 
704.048033 93.602512 
705.012482 93.644032 
705.976932 93.691535 
706.941381 93.738137 
707.905830 93.780133 
708.870280 93.821256 
709.834729 93.863437 
710.799178 93.907282 
711.763628 93.956032 
712.728077 94.009069 
713.692526 94.070345 
714.656976 94.129951 
715.621425 94.182434 
716.585874 94.231477 
717.550324 94.267080 
718.514773 94.293684 
719.479223 94.335991 
720.443672 94.371330 
721.408121 94.405777 
722.372571 94.433415 
723.337020 94.447800 
724.301469 94.468568 
725.265919 94.489254 
726.230368 94.523841 
727.194817 94.565781 
728.159267 94.597819 
729.123716 94.619637 
730.088166 94.633066 
731.052615 94.650433 
732.017064 94.675417 
732.981514 94.711064 
733.945963 94.751680 
734.910412 94.782742 
735.874862 94.804932 
736.839311 94.815290 
737.803760 94.823586 
738.768210 94.834934 
739.732659 94.845852 
740.697108 94.858566 
741.661558 94.876507 
742.626007 94.893397 
743.590457 94.906205 
744.554906 94.913711 
745.519355 94.927388 
746.483805 94.948801 
747.448254 94.978233 
748.412703 95.010278 
749.377153 95.038987 
750.341602 95.062215 
751.306051 95.076608 
752.270501 95.088726 
753.234950 95.107741 
754.199400 95.133111 
755.163849 95.162395 
756.128298 95.187329 
757.092748 95.205783 
758.057197 95.215642 
759.021646 95.220130 
759.986096 95.219812 
760.950545 95.223500 
761.914994 95.233861 
762.879444 95.247281 
763.843893 95.254382 
764.808342 95.253802 
765.772792 95.252407 
766.737241 95.249550 
767.701691 95.248943 
768.666140 95.256263 
769.630589 95.267577 
770.595039 95.281047 
771.559488 95.285524 
772.523937 95.281684 
773.488387 95.278321 
774.452836 95.284131 
775.417285 95.301821 
776.381735 95.325132 
777.346184 95.349110 
778.310634 95.368240 
779.275083 95.378130 
780.239532 95.387801 
781.203982 95.400763 
782.168431 95.426631 
783.132880 95.460874 
784.097330 95.493194 
785.061779 95.522174 
786.026228 95.544371 
786.990678 95.561951 
787.955127 95.580212 
788.919576 95.602245 
789.884026 95.630010 
790.848475 95.658222 
791.812925 95.682904 
792.777374 95.699841 
793.741823 95.711053 
794.706273 95.719757 
795.670722 95.729796 
796.635171 95.743061 
797.599621 95.761027 
798.564070 95.778129 
799.528519 95.787195 
800.492969 95.785903 
801.457418 95.778648 
802.421868 95.771229 
803.386317 95.767449 
804.350766 95.766404 
805.315216 95.767481 
806.279665 95.764539 
807.244114 95.753453 
808.208564 95.735253 
809.173013 95.714447 
810.137462 95.696560 
811.101912 95.684209 
812.066361 95.673808 
813.030810 95.660211 
813.995260 95.638645 
814.959709 95.611188 
815.924159 95.579642 
816.888608 95.550672 
817.853057 95.529313 
818.817507 95.512354 
819.781956 95.495749 
820.746405 95.470900 
821.710855 95.435320 
822.675304 95.391853 
823.639753 95.343883 
824.604203 95.299371 
825.568652 95.255590 
826.533102 95.206470 
827.497551 95.148235 
828.462000 95.079059 
829.426450 95.005109 
830.390899 94.934545 
831.355348 94.874925 
832.319798 94.825563 
833.284247 94.778368 
834.248696 94.728320 
835.213146 94.671706 
836.177595 94.613517 
837.142044 94.561415 
838.106494 94.521317 
839.070943 94.492761 
840.035393 94.471011 
840.999842 94.451185 
841.964291 94.426229 
842.928741 94.399241 
843.893190 94.377702 
844.857639 94.365121 
845.822089 94.365050 
846.786538 94.373540 
847.750987 94.382836 
848.715437 94.388253 
849.679886 94.387014 
850.644336 94.384932 
851.608785 94.389344 
852.573234 94.400953 
853.537684 94.411926 
854.502133 94.413131 
855.466582 94.401962 
856.431032 94.380745 
857.395481 94.357178 
858.359930 94.337088 
859.324380 94.325103 
860.288829 94.321391 
861.253278 94.320446 
862.217728 94.315919 
863.182177 94.303525 
864.146627 94.284487 
865.111076 94.260581 
866.075525 94.231208 
867.039975 94.197535 
868.004424 94.158949 
868.968873 94.110752 
869.933323 94.049802 
870.897772 93.980802 
871.862221 93.913348 
872.826671 93.855188 
873.791120 93.805930 
874.755570 93.759709 
875.720019 93.711934 
876.684468 93.660814 
877.648918 93.608622 
878.613367 93.561694 
879.577816 93.525327 
880.542266 93.501776 
881.506715 93.488247 
882.471164 93.476864 
883.435614 93.465687 
884.400063 93.455729 
885.364512 93.449998 
886.328962 93.449707 
887.293411 93.458208 
888.257861 93.478820 
889.222310 93.507683 
890.186759 93.540283 
891.151209 93.571786 
892.115658 93.600756 
893.080107 93.630762 
894.044557 93.665220 
895.009006 93.703390 
895.973455 93.738358 
896.937905 93.763799 
897.902354 93.773452 
898.866804 93.766850 
899.831253 93.755610 
900.795702 93.750825 
901.760152 93.754689 
902.724601 93.765658 
903.689050 93.780139 
904.653500 93.791706 
905.617949 93.796361 
906.582398 93.796052 
907.546848 93.797405 
908.511297 93.808361 
909.475746 93.831861 
910.440196 93.861496 
911.404645 93.888762 
912.369095 93.908252 
913.333544 93.922045 
914.297993 93.937113 
915.262443 93.959877 
916.226892 93.993728 
917.191341 94.033679 
918.155791 94.067875 
919.120240 94.089604 
920.084689 94.102908 
921.049139 94.117610 
922.013588 94.143255 
922.978038 94.181288 
923.942487 94.222543 
924.906936 94.258948 
925.871386 94.288542 
926.835835 94.310784 
927.800284 94.329844 
928.764734 94.354053 
929.729183 94.389532 
930.693632 94.432073 
931.658082 94.473647 
932.622531 94.509297 
933.586980 94.538604 
934.551430 94.564725 
935.515879 94.594031 
936.480329 94.630239 
937.444778 94.671849 
938.409227 94.712861 
939.373677 94.747646 
940.338126 94.773687 
941.302575 94.795695 
942.267025 94.820898 
943.231474 94.855059 
944.195923 94.898319 
945.160373 94.942572 
946.124822 94.980424 
947.089272 95.007267 
948.053721 95.026271 
949.018170 95.044509 
949.982620 95.069063 
950.947069 95.099786 
951.911518 95.131233 
952.875968 95.156160 
953.840417 95.172229 
954.804866 95.186497 
955.769316 95.202147 
956.733765 95.219747 
957.698214 95.239920 
958.662664 95.259675 
959.627113 95.275791 
960.591563 95.288537 
961.556012 95.299340 
962.520461 95.308243 
963.484911 95.314064 
964.449360 95.319141 
965.413809 95.325584 
966.378259 95.332771 
967.342708 95.336891 
968.307157 95.336156 
969.271607 95.330699 
970.236056 95.325102 
971.200506 95.321122 
972.164955 95.320222 
973.129404 95.321107 
974.093854 95.321043 
975.058303 95.319532 
976.022752 95.316024 
976.987202 95.308964 
977.951651 95.300459 
978.916100 95.295865 
979.880550 95.296333 
980.844999 95.300363 
981.809448 95.304870 
982.773898 95.305479 
983.738347 95.300794 
984.702797 95.296358 
985.667246 95.299515 
986.631695 95.313642 
987.596145 95.335287 
988.560594 95.354326 
989.525043 95.365177 
990.489493 95.369475 
991.453942 95.375575 
992.418391 95.392161 
993.382841 95.418127 
994.347290 95.446269 
995.311740 95.470058 
996.276189 95.486650 
997.240638 95.499984 
998.205088 95.516165 
999.169537 95.538832 
1000.133986 95.568723 
1001.098436 95.601427 
1002.062885 95.629249 
1003.027334 95.649815 
1003.991784 95.663447 
1004.956233 95.676911 
1005.920682 95.695728 
1006.885132 95.719880 
1007.849581 95.747422 
1008.814031 95.773974 
1009.778480 95.795539 
1010.742929 95.812276 
1011.707379 95.826829 
1012.671828 95.843254 
1013.636277 95.865622 
1014.600727 95.893574 
1015.565176 95.923005 
1016.529625 95.949895 
1017.494075 95.973569 
1018.458524 95.995109 
1019.422974 96.017604 
1020.387423 96.044389 
1021.351872 96.077187 
1022.316322 96.112928 
1023.280771 96.146163 
1024.245220 96.174059 
1025.209670 96.196583 
1026.174119 96.218550 
1027.138568 96.245382 
1028.103018 96.277916 
1029.067467 96.313520 
1030.031916 96.348285 
1030.996366 96.378547 
1031.960815 96.403406 
1032.925265 96.425274 
1033.889714 96.449340 
1034.854163 96.478337 
1035.818613 96.513440 
1036.783062 96.550299 
1037.747511 96.583554 
1038.711961 96.610255 
1039.676410 96.631871 
1040.640859 96.656072 
1041.605309 96.687346 
1042.569758 96.723553 
1043.534208 96.760955 
1044.498657 96.794917 
1045.463106 96.823870 
1046.427556 96.849941 
1047.392005 96.876514 
1048.356454 96.908150 
1049.320904 96.943833 
1050.285353 96.982233 
1051.249802 97.019001 
1052.214252 97.049005 
1053.178701 97.072144 
1054.143150 97.091697 
1055.107600 97.112513 
1056.072049 97.136895 
1057.036499 97.163547 
1058.000948 97.187995 
1058.965397 97.207394 
1059.929847 97.219875 
1060.894296 97.227468 
1061.858745 97.236875 
1062.823195 97.252824 
1063.787644 97.274717 
1064.752093 97.297864 
1065.716543 97.316097 
1066.680992 97.328912 
1067.645442 97.336351 
1068.609891 97.343601 
1069.574340 97.356517 
1070.538790 97.374928 
1071.503239 97.395663 
1072.467688 97.412183 
1073.432138 97.421694 
1074.396587 97.426684 
1075.361036 97.430163 
1076.325486 97.438250 
1077.289935 97.453742 
1078.254384 97.472429 
1079.218834 97.488862 
1080.183283 97.499776 
1081.147733 97.505741 
1082.112182 97.508700 
1083.076631 97.514837 
1084.041081 97.526300 
1085.005530 97.539545 
1085.969979 97.552632 
1086.934429 97.561453 
1087.898878 97.565365 
1088.863327 97.567155 
1089.827777 97.570349 
1090.792226 97.578723 
1091.756676 97.592253 
1092.721125 97.606710 
1093.685574 97.619124 
1094.650024 97.628503 
1095.614473 97.634557 
1096.578922 97.640857 
1097.543372 97.651627 
1098.507821 97.667840 
1099.472270 97.687500 
1100.436720 97.704283 
1101.401169 97.715645 
1102.365618 97.722730 
1103.330068 97.727190 
1104.294517 97.734993 
1105.258967 97.748925 
1106.223416 97.767736 
1107.187865 97.786730 
1108.152315 97.799952 
1109.116764 97.809060 
1110.081213 97.817649 
1111.045663 97.828198 
1112.010112 97.844549 
1112.974561 97.865289 
1113.939011 97.884488 
1114.903460 97.896832 
1115.867910 97.903111 
1116.832359 97.906829 
1117.796808 97.911531 
1118.761258 97.921509 
1119.725707 97.935865 
1120.690156 97.950681 
1121.654606 97.962361 
1122.619055 97.969173 
1123.583504 97.970254 
1124.547954 97.968609 
1125.512403 97.970501 
1126.476852 97.978194 
1127.441302 97.988701 
1128.405751 97.997266 
1129.370201 98.002686 
1130.334650 98.004084 
1131.299099 98.002335 
1132.263549 98.000701 
1133.227998 98.002843 
1134.192447 98.009594 
1135.156897 98.016877 
1136.121346 98.022366 
1137.085795 98.024801 
1138.050245 98.023925 
1139.014694 98.023109 
1139.979144 98.025782 
1140.943593 98.034946 
1141.908042 98.047615 
1142.872492 98.058583 
1143.836941 98.064037 
1144.801390 98.063066 
1145.765840 98.059128 
1146.730289 98.058553 
1147.694738 98.064282 
1148.659188 98.074738 
1149.623637 98.087080 
1150.588086 98.097644 
1151.552536 98.104061 
1152.516985 98.108172 
1153.481435 98.113859 
1154.445884 98.125861 
1155.410333 98.142574 
1156.374783 98.157848 
1157.339232 98.169534 
1158.303681 98.176536 
1159.268131 98.179180 
1160.232580 98.181175 
1161.197029 98.186475 
1162.161479 98.197193 
1163.125928 98.209216 
1164.090378 98.216579 
1165.054827 98.216563 
1166.019276 98.210228 
1166.983726 98.202609 
1167.948175 98.198841 
1168.912624 98.200629 
1169.877074 98.202828 
1170.841523 98.202162 
1171.805972 98.196545 
1172.770422 98.183712 
1173.734871 98.168385 
1174.699320 98.155408 
1175.663770 98.147254 
1176.628219 98.142030 
1177.592669 98.134800 
1178.557118 98.123548 
1179.521567 98.108764 
1180.486017 98.093099 
1181.450466 98.081381 
1182.414915 98.075568 
1183.379365 98.074083 
1184.343814 98.072901 
1185.308263 98.069876 
1186.272713 98.063619 
1187.237162 98.055120 
1188.201612 98.046389 
1189.166061 98.040106 
1190.130510 98.038866 
1191.094960 98.041055 
1192.059409 98.041793 
1193.023858 98.038248 
1193.988308 98.031442 
1194.952757 98.023847 
1195.917206 98.019170 
1196.881656 98.018736 
1197.846105 98.019502 
1198.810554 98.019861 
1199.775004 98.020065 
1200.739453 98.017830 
1201.703903 98.012008 
1202.668352 98.006506 
1203.632801 98.004499 
1204.597251 98.005106 
1205.561700 98.006662 
1206.526149 98.007574 
1207.490599 98.004958 
1208.455048 97.997276 
1209.419497 97.987706 
1210.383947 97.979932 
1211.348396 97.978016 
1212.312846 97.980937 
1213.277295 97.983897 
1214.241744 97.982299 
1215.206194 97.974263 
1216.170643 97.965258 
1217.135092 97.961032 
1218.099542 97.962668 
1219.063991 97.966688 
1220.028440 97.969670 
1220.992890 97.969306 
1221.957339 97.965727 
1222.921788 97.961571 
1223.886238 97.959021 
1224.850687 97.958995 
1225.815137 97.961273 
1226.779586 97.963220 
1227.744035 97.963112 
1228.708485 97.962172 
1229.672934 97.958584 
1230.637383 97.953348 
1231.601833 97.951764 
1232.566282 97.955348 
1233.530731 97.960592 
1234.495181 97.962830 
1235.459630 97.960839 
1236.424080 97.955514 
1237.388529 97.949956 
1238.352978 97.946622 
1239.317428 97.945714 
1240.281877 97.946758 
1241.246326 97.946225 
1242.210776 97.942246 
1243.175225 97.934324 
1244.139674 97.927197 
1245.104124 97.923337 
1246.068573 97.921442 
1247.033022 97.920551 
1247.997472 97.918874 
1248.961921 97.916342 
1249.926371 97.912858 
1250.890820 97.905969 
1251.855269 97.897430 
1252.819719 97.891562 
1253.784168 97.888877 
1254.748617 97.886448 
1255.713067 97.882518 
1256.677516 97.876428 
1257.641965 97.867837 
1258.606415 97.859501 
1259.570864 97.852858 
1260.535314 97.849272 
1261.499763 97.847360 
1262.464212 97.843283 
1263.428662 97.835151 
1264.393111 97.825223 
1265.357560 97.815816 
1266.322010 97.807857 
1267.286459 97.801076 
1268.250908 97.795964 
1269.215358 97.790267 
1270.179807 97.780714 
1271.144256 97.767526 
1272.108706 97.753963 
1273.073155 97.741107 
1274.037605 97.729968 
1275.002054 97.720541 
1275.966503 97.711179 
1276.930953 97.701568 
1277.895402 97.689268 
1278.859851 97.672147 
1279.824301 97.653178 
1280.788750 97.636097 
1281.753199 97.622244 
1282.717649 97.609063 
1283.682098 97.592333 
1284.646548 97.573172 
1285.610997 97.551967 
1286.575446 97.528733 
1287.539896 97.505394 
1288.504345 97.485654 
1289.468794 97.467818 
1290.433244 97.449181 
1291.397693 97.427257 
1292.362142 97.401180 
1293.326592 97.371717 
1294.291041 97.342176 
1295.255490 97.313953 
1296.219940 97.288247 
1297.184389 97.264929 
1298.148839 97.240264 
1299.113288 97.211044 
1300.077737 97.177457 
1301.042187 97.142754 
1302.006636 97.107719 
1302.971085 97.075990 
1303.935535 97.046452 
1304.899984 97.016345 
1305.864433 96.982566 
1306.828883 96.945067 
1307.793332 96.903800 
1308.757782 96.861478 
1309.722231 96.821273 
1310.686680 96.784038 
1311.651130 96.746055 
1312.615579 96.705963 
1313.580028 96.662799 
1314.544478 96.616560 
1315.508927 96.569205 
1316.473376 96.524500 
1317.437826 96.480629 
1318.402275 96.435656 
1319.366724 96.387940 
1320.331174 96.339472 
1321.295623 96.288314 
1322.260073 96.235770 
1323.224522 96.186002 
1324.188971 96.139139 
1325.153421 96.090841 
1326.117870 96.038775 
1327.082319 95.986334 
1328.046769 95.932686 
1329.011218 95.879351 
1329.975667 95.827638 
1330.940117 95.777298 
1331.904566 95.725833 
1332.869016 95.674962 
1333.833465 95.623575 
1334.797914 95.570198 
1335.762364 95.518036 
1336.726813 95.465269 
1337.691262 95.412089 
1338.655712 95.361631 
1339.620161 95.311607 
1340.584610 95.260218 
1341.549060 95.209262 
1342.513509 95.160022 
1343.477958 95.111070 
1344.442408 95.065235 
1345.406857 95.020435 
1346.371307 94.977899 
1347.335756 94.942878 
1348.300205 94.901410 
1349.264655 94.857843 
1350.229104 94.812759 
1351.193553 94.769648 
1352.158003 94.731087 
1353.122452 94.696926 
1354.086901 94.659536 
1355.051351 94.623363 
1356.015800 94.587072 
1356.980250 94.550819 
1357.944699 94.518439 
1358.909148 94.490357 
1359.873598 94.462968 
1360.838047 94.433969 
1361.802496 94.405456 
1362.766946 94.376889 
1363.731395 94.348644 
1364.695844 94.320432 
1365.660294 94.294803 
1366.624743 94.270171 
1367.589192 94.245748 
1368.553642 94.220947 
1369.518091 94.192827 
1370.482541 94.166535 
1371.446990 94.151092 
1372.411439 94.130284 
1373.375889 94.105579 
1374.340338 94.083009 
1375.304787 94.061354 
1376.269237 94.036969 
1377.233686 94.012860 
1378.198135 93.994549 
1379.162585 93.984230 
1380.127034 93.970629 
1381.091484 93.945664 
1382.055933 93.925605 
1383.020382 93.915013 
1383.984832 93.902872 
1384.949281 93.887958 
1385.913730 93.872974 
1386.878180 93.855029 
1387.842629 93.839204 
1388.807078 93.832253 
1389.771528 93.827027 
1390.735977 93.819030 
1391.700426 93.807426 
1392.664876 93.793084 
1393.629325 93.781208 
1394.593775 93.770958 
1395.558224 93.760663 
1396.522673 93.748488 
1397.487123 93.732196 
1398.451572 93.714956 
1399.416021 93.696862 
1400.380471 93.678557 
1401.344920 93.658772 
1402.309369 93.637880 
1403.273819 93.634272 
1404.238268 93.613170 
1405.202718 93.566883 
1406.167167 93.514392 
1407.131616 93.462885 
1408.096066 93.414924 
1409.060515 93.356658 
1410.024964 93.290866 
1410.989414 93.220560 
1411.953863 93.137059 
1412.918312 93.040363 
1413.882762 92.947269 
1414.847211 92.849058 
1415.811660 92.742266 
1416.776110 92.623926 
1417.740559 92.499617 
1418.705009 92.368639 
1419.669458 92.232858 
1420.633907 92.119323 
1421.598357 91.994404 
1422.562806 91.849680 
1423.527255 91.701289 
1424.491705 91.553337 
1425.456154 91.402320 
1426.420603 91.250278 
1427.385053 91.095785 
1428.349502 90.942328 
1429.313952 90.788954 
1430.278401 90.636373 
1431.242850 90.492730 
1432.207300 90.362542 
1433.171749 90.232084 
1434.136198 90.105924 
1435.100648 89.990043 
1436.065097 89.888361 
1437.029546 89.771646 
1437.993996 89.666295 
1438.958445 89.577482 
1439.922894 89.508164 
1440.887344 89.464171 
1441.851793 89.422111 
1442.816243 89.396272 
1443.780692 89.378781 
1444.745141 89.371085 
1445.709591 89.379515 
1446.674040 89.401070 
1447.638489 89.426814 
1448.602939 89.483271 
1449.567388 89.559471 
1450.531837 89.638081 
1451.496287 89.728863 
1452.460736 89.835595 
1453.425186 89.953280 
1454.389635 90.047830 
1455.354084 90.156805 
1456.318534 90.290549 
1457.282983 90.436157 
1458.247432 90.571448 
1459.211882 90.697925 
1460.176331 90.835992 
1461.140780 90.967159 
1462.105230 91.089376 
1463.069679 91.210653 
1464.034128 91.334182 
1464.998578 91.459863 
1465.963027 91.574415 
1466.927477 91.687522 
1467.891926 91.800065 
1468.856375 91.908312 
1469.820825 92.007887 
1470.785274 92.113870 
1471.749723 92.223732 
1472.714173 92.327989 
1473.678622 92.435994 
1474.643071 92.533180 
1475.607521 92.613140 
1476.571970 92.675772 
1477.536420 92.737198 
1478.500869 92.796406 
1479.465318 92.856759 
1480.429768 92.928727 
1481.394217 92.990610 
1482.358666 93.038887 
1483.323116 93.081700 
1484.287565 93.120046 
1485.252014 93.156106 
1486.216464 93.191646 
1487.180913 93.223208 
1488.145362 93.254773 
1489.109812 93.279815 
1490.074261 93.300879 
1491.038711 93.335755 
1492.003160 93.366066 
1492.967609 93.396782 
1493.932059 93.408267 
1494.896508 93.411331 
1495.860957 93.423760 
1496.825407 93.437519 
1497.789856 93.444826 
1498.754305 93.450592 
1499.718755 93.453663 
1500.683204 93.473777 
1501.647654 93.502821 
1502.612103 93.515325 
1503.576552 93.524752 
1504.541002 93.543327 
1505.505451 93.575210 
1506.469900 93.614748 
1507.434350 93.633706 
1508.398799 93.635516 
1509.363248 93.656124 
1510.327698 93.674671 
1511.292147 93.694434 
1512.256596 93.726016 
1513.221046 93.754010 
1514.185495 93.763984 
1515.149945 93.784840 
1516.114394 93.799590 
1517.078843 93.815860 
1518.043293 93.850827 
1519.007742 93.875873 
1519.972191 93.897734 
1520.936641 93.919344 
1521.901090 93.946416 
1522.865539 93.991632 
1523.829989 94.069078 
1524.794438 94.100444 
1525.758888 94.136659 
1526.723337 94.172768 
1527.687786 94.197652 
1528.652236 94.239485 
1529.616685 94.281533 
1530.581134 94.309403 
1531.545584 94.342135 
1532.510033 94.372736 
1533.474482 94.418402 
1534.438932 94.459675 
1535.403381 94.479902 
1536.367830 94.511815 
1537.332280 94.557166 
1538.296729 94.609870 
1539.261179 94.636991 
1540.225628 94.649563 
1541.190077 94.671828 
1542.154527 94.708898 
1543.118976 94.759506 
1544.083425 94.831739 
1545.047875 94.863927 
1546.012324 94.877532 
1546.976773 94.888733 
1547.941223 94.906460 
1548.905672 94.934788 
1549.870122 94.965227 
1550.834571 94.985014 
1551.799020 94.985843 
1552.763470 94.997232 
1553.727919 95.032837 
1554.692368 95.064882 
1555.656818 95.102301 
1556.621267 95.143963 
1557.585716 95.150751 
1558.550166 95.162753 
1559.514615 95.176411 
1560.479064 95.208693 
1561.443514 95.238411 
1562.407963 95.253652 
1563.372413 95.258298 
1564.336862 95.270908 
1565.301311 95.287877 
1566.265761 95.310819 
1567.230210 95.327281 
1568.194659 95.335489 
1569.159109 95.351174 
1570.123558 95.373966 
1571.088007 95.400692 
1572.052457 95.412719 
1573.016906 95.433415 
1573.981356 95.468040 
1574.945805 95.512288 
1575.910254 95.559281 
1576.874704 95.577600 
1577.839153 95.564105 
1578.803602 95.578268 
1579.768052 95.600446 
1580.732501 95.627507 
1581.696950 95.657295 
1582.661400 95.679866 
1583.625849 95.703348 
1584.590298 95.733042 
1585.554748 95.770368 
1586.519197 95.808109 
1587.483647 95.824020 
1588.448096 95.845352 
1589.412545 95.870484 
1590.376995 95.897069 
1591.341444 95.928135 
1592.305893 95.966413 
1593.270343 96.004755 
1594.234792 96.019552 
1595.199241 96.036951 
1596.163691 96.056531 
1597.128140 96.075734 
1598.092590 96.092439 
1599.057039 96.102762 
1600.021488 96.118708 
1600.985938 96.153114 
1601.950387 96.169736 
1602.914836 96.179412 
1603.879286 96.187476 
1604.843735 96.192856 
1605.808184 96.194049 
1606.772634 96.200692 
1607.737083 96.220219 
1608.701532 96.229669 
1609.665982 96.233061 
1610.630431 96.236236 
1611.594881 96.248847 
1612.559330 96.260599 
1613.523779 96.267932 
1614.488229 96.274410 
1615.452678 96.279486 
1616.417127 96.281158 
1617.381577 96.278977 
1618.346026 96.277046 
1619.310475 96.303882 
1620.274925 96.317553 
1621.239374 96.324677 
1622.203824 96.330309 
1623.168273 96.331629 
1624.132722 96.334356 
1625.097172 96.336527 
1626.061621 96.341782 
1627.026070 96.343764 
1627.990520 96.339770 
1628.954969 96.335164 
1629.919418 96.343990 
1630.883868 96.358119 
1631.848317 96.385130 
1632.812766 96.414399 
1633.777216 96.431474 
1634.741665 96.418497 
1635.706115 96.412071 
1636.670564 96.425456 
1637.635013 96.477074 
1638.599463 96.505132 
1639.563912 96.524568 
1640.528361 96.538154 
1641.492811 96.536356 
1642.457260 96.540048 
1643.421709 96.548256 
1644.386159 96.559365 
1645.350608 96.561050 
1646.315058 96.571342 
1647.279507 96.591550 
1648.243956 96.602343 
1649.208406 96.612566 
1650.172855 96.624026 
1651.137304 96.640276 
1652.101754 96.661565 
1653.066203 96.673258 
1654.030652 96.683670 
1654.995102 96.693333 
1655.959551 96.704879 
1656.924000 96.711280 
1657.888450 96.711224 
1658.852899 96.730239 
1659.817349 96.758177 
1660.781798 96.772578 
1661.746247 96.790405 
1662.710697 96.814323 
1663.675146 96.837482 
1664.639595 96.862498 
1665.604045 96.864881 
1666.568494 96.864481 
1667.532943 96.883400 
1668.497393 96.970178 
1669.461842 97.022001 
1670.426292 97.045582 
1671.390741 97.022121 
1672.355190 97.014523 
1673.319640 97.016281 
1674.284089 97.023897 
1675.248538 97.030267 
1676.212988 97.035858 
1677.177437 97.042418 
1678.141886 97.048428 
1679.106336 97.067284 
1680.070785 97.098992 
1681.035234 97.105010 
1681.999684 97.109080 
1682.964133 97.109162 
1683.928583 97.156211 
1684.893032 97.206896 
1685.857481 97.223780 
1686.821931 97.210954 
1687.786380 97.207495 
1688.750829 97.209514 
1689.715279 97.206672 
1690.679728 97.220751 
1691.644177 97.239473 
1692.608627 97.237629 
1693.573076 97.224046 
1694.537526 97.225239 
1695.501975 97.227864 
1696.466424 97.234928 
1697.430874 97.237199 
1698.395323 97.244282 
1699.359772 97.265248 
1700.324222 97.288009 
1701.288671 97.317943 
1702.253120 97.302110 
1703.217570 97.297148 
1704.182019 97.295904 
1705.146468 97.295462 
1706.110918 97.291712 
1707.075367 97.293410 
1708.039817 97.294207 
1709.004266 97.294915 
1709.968715 97.299812 
1710.933165 97.309025 
1711.897614 97.326042 
1712.862063 97.340048 
1713.826513 97.340555 
1714.790962 97.348808 
1715.755411 97.359383 
1716.719861 97.380203 
1717.684310 97.377379 
1718.648760 97.371747 
1719.613209 97.367816 
1720.577658 97.366192 
1721.542108 97.362406 
1722.506557 97.352509 
1723.471006 97.357922 
1724.435456 97.356517 
1725.399905 97.346448 
1726.364354 97.340047 
1727.328804 97.343475 
1728.293253 97.339169 
1729.257702 97.332790 
1730.222152 97.330670 
1731.186601 97.335224 
1732.151051 97.339659 
1733.115500 97.344430 
1734.079949 97.355645 
1735.044399 97.375162 
1736.008848 97.362835 
1736.973297 97.348664 
1737.937747 97.341262 
1738.902196 97.332567 
1739.866645 97.327180 
1740.831095 97.330138 
1741.795544 97.326336 
1742.759994 97.319906 
1743.724443 97.309215 
1744.688892 97.297345 
1745.653342 97.306002 
1746.617791 97.315744 
1747.582240 97.307928 
1748.546690 97.302395 
1749.511139 97.307234 
1750.475588 97.319711 
1751.440038 97.316649 
1752.404487 97.298144 
1753.368936 97.284531 
1754.333386 97.273217 
1755.297835 97.269647 
1756.262285 97.290262 
1757.226734 97.295320 
1758.191183 97.280580 
1759.155633 97.278970 
1760.120082 97.284504 
1761.084531 97.275453 
1762.048981 97.266968 
1763.013430 97.264039 
1763.977879 97.267681 
1764.942329 97.279928 
1765.906778 97.282848 
1766.871228 97.279560 
1767.835677 97.283760 
1768.800126 97.280077 
1769.764576 97.272540 
1770.729025 97.267430 
1771.693474 97.263302 
1772.657924 97.263758 
1773.622373 97.263830 
1774.586822 97.256378 
1775.551272 97.253194 
1776.515721 97.265643 
1777.480170 97.276928 
1778.444620 97.283850 
1779.409069 97.277537 
1780.373519 97.274259 
1781.337968 97.272708 
1782.302417 97.268236 
1783.266867 97.272665 
1784.231316 97.284019 
1785.195765 97.289162 
1786.160215 97.288037 
1787.124664 97.295398 
1788.089113 97.308692 
1789.053563 97.322295 
1790.018012 97.316570 
1790.982462 97.307066 
1791.946911 97.310191 
1792.911360 97.307961 
1793.875810 97.303338 
1794.840259 97.308040 
1795.804708 97.313296 
1796.769158 97.319323 
1797.733607 97.321310 
1798.698056 97.315937 
1799.662506 97.312752 
1800.626955 97.313861 
1801.591404 97.318787 
1802.555854 97.315330 
1803.520303 97.311205 
1804.484753 97.310060 
1805.449202 97.310283 
1806.413651 97.313308 
1807.378101 97.318362 
1808.342550 97.325051 
1809.306999 97.341804 
1810.271449 97.336254 
1811.235898 97.325576 
1812.200347 97.319717 
1813.164797 97.319530 
1814.129246 97.328398 
1815.093696 97.332496 
1816.058145 97.337404 
1817.022594 97.337776 
1817.987044 97.335714 
1818.951493 97.333356 
1819.915942 97.325024 
1820.880392 97.320066 
1821.844841 97.319008 
1822.809290 97.316392 
1823.773740 97.314218 
1824.738189 97.310811 
1825.702638 97.305058 
1826.667088 97.300052 
1827.631537 97.303484 
1828.595987 97.312482 
1829.560436 97.309417 
1830.524885 97.301808 
1831.489335 97.299502 
1832.453784 97.298773 
1833.418233 97.296181 
1834.382683 97.292657 
1835.347132 97.286982 
1836.311581 97.282797 
1837.276031 97.279918 
1838.240480 97.277954 
1839.204930 97.276581 
1840.169379 97.274865 
1841.133828 97.275905 
1842.098278 97.277790 
1843.062727 97.267871 
1844.027176 97.261576 
1844.991626 97.263140 
1845.956075 97.272505 
1846.920524 97.277100 
1847.884974 97.266118 
1848.849423 97.258256 
1849.813872 97.254078 
1850.778322 97.249930 
1851.742771 97.247075 
1852.707221 97.253013 
1853.671670 97.263822 
1854.636119 97.264796 
1855.600569 97.261733 
1856.565018 97.259444 
1857.529467 97.257620 
1858.493917 97.257599 
1859.458366 97.259972 
1860.422815 97.269026 
1861.387265 97.271782 
1862.351714 97.259427 
1863.316164 97.255404 
1864.280613 97.256217 
1865.245062 97.254115 
1866.209512 97.249117 
1867.173961 97.245960 
1868.138410 97.243862 
1869.102860 97.242861 
1870.067309 97.240231 
1871.031758 97.237375 
1871.996208 97.232474 
1872.960657 97.232467 
1873.925106 97.237806 
1874.889556 97.238638 
1875.854005 97.236861 
1876.818455 97.234328 
1877.782904 97.231768 
1878.747353 97.230738 
1879.711803 97.232145 
1880.676252 97.232552 
1881.640701 97.232837 
1882.605151 97.234945 
1883.569600 97.239069 
1884.534049 97.244783 
1885.498499 97.251943 
1886.462948 97.251935 
1887.427398 97.245513 
1888.391847 97.243260 
1889.356296 97.242473 
1890.320746 97.240785 
1891.285195 97.240890 
1892.249644 97.241843 
1893.214094 97.242495 
1894.178543 97.245227 
1895.142992 97.246109 
1896.107442 97.246506 
1897.071891 97.246300 
1898.036340 97.246488 
1899.000790 97.245711 
1899.965239 97.242577 
1900.929689 97.239646 
1901.894138 97.246898 
1902.858587 97.250736 
1903.823037 97.249862 
1904.787486 97.247135 
1905.751935 97.247462 
1906.716385 97.251081 
1907.680834 97.248598 
1908.645283 97.245904 
1909.609733 97.243963 
1910.574182 97.242467 
1911.538632 97.242173 
1912.503081 97.240634 
1913.467530 97.236318 
1914.431980 97.233418 
1915.396429 97.230686 
1916.360878 97.228411 
1917.325328 97.226217 
1918.289777 97.223288 
1919.254226 97.218861 
1920.218676 97.215103 
1921.183125 97.211304 
1922.147574 97.207631 
1923.112024 97.204432 
1924.076473 97.202170 
1925.040923 97.194929 
1926.005372 97.196866 
1926.969821 97.206719 
1927.934271 97.202306 
1928.898720 97.197054 
1929.863169 97.195156 
1930.827619 97.194234 
1931.792068 97.191531 
1932.756517 97.189931 
1933.720967 97.191815 
1934.685416 97.196232 
1935.649866 97.189580 
1936.614315 97.181704 
1937.578764 97.177772 
1938.543214 97.177464 
1939.507663 97.179880 
1940.472112 97.175880 
1941.436562 97.169265 
1942.401011 97.165322 
1943.365460 97.161716 
1944.329910 97.157912 
1945.294359 97.154715 
1946.258808 97.151439 
1947.223258 97.148047 
1948.187707 97.144206 
1949.152157 97.140038 
1950.116606 97.135966 
1951.081055 97.134919 
1952.045505 97.134292 
1953.009954 97.131914 
1953.974403 97.129361 
1954.938853 97.127185 
1955.903302 97.125180 
1956.867751 97.123516 
1957.832201 97.124403 
1958.796650 97.132401 
1959.761100 97.132799 
1960.725549 97.122269 
1961.689998 97.120406 
1962.654448 97.120763 
1963.618897 97.119213 
1964.583346 97.116034 
1965.547796 97.114065 
1966.512245 97.111276 
1967.476694 97.109205 
1968.441144 97.106728 
1969.405593 97.103851 
1970.370042 97.100216 
1971.334492 97.097102 
1972.298941 97.097029 
1973.263391 97.096262 
1974.227840 97.091159 
1975.192289 97.088256 
1976.156739 97.092433 
1977.121188 97.093420 
1978.085637 97.091248 
1979.050087 97.089414 
1980.014536 97.088087 
1980.978985 97.086379 
1981.943435 97.084304 
1982.907884 97.084143 
1983.872334 97.085123 
1984.836783 97.082951 
1985.801232 97.080125 
1986.765682 97.079482 
1987.730131 97.078347 
1988.694580 97.077114 
1989.659030 97.075981 
1990.623479 97.075135 
1991.587928 97.074515 
1992.552378 97.074453 
1993.516827 97.074050 
1994.481276 97.073275 
1995.445726 97.072042 
1996.410175 97.071639 
1997.374625 97.071605 
1998.339074 97.070930 
1999.303523 97.066232 
2000.267973 97.063239 
2001.232422 97.063549 
2002.196871 97.064132 
2003.161321 97.066362 
2004.125770 97.070041 
2005.090219 97.073948 
2006.054669 97.074993 
2007.019118 97.076567 
2007.983568 97.082150 
2008.948017 97.086078 
2009.912466 97.082456 
2010.876916 97.080944 
2011.841365 97.081600 
2012.805814 97.080833 
2013.770264 97.078983 
2014.734713 97.076909 
2015.699162 97.075703 
2016.663612 97.074247 
2017.628061 97.073018 
2018.592510 97.072092 
2019.556960 97.070803 
2020.521409 97.068023 
2021.485859 97.065479 
2022.450308 97.063268 
2023.414757 97.059933 
2024.379207 97.055454 
2025.343656 97.053523 
2026.308105 97.051517 
2027.272555 97.048972 
2028.237004 97.046493 
2029.201453 97.043334 
2030.165903 97.039023 
2031.130352 97.034610 
2032.094802 97.031008 
2033.059251 97.032379 
2034.023700 97.035064 
2034.988150 97.034369 
2035.952599 97.032862 
2036.917048 97.030425 
2037.881498 97.028014 
2038.845947 97.026121 
2039.810396 97.023797 
2040.774846 97.020604 
2041.739295 97.017875 
2042.703744 97.015588 
2043.668194 97.012835 
2044.632643 97.009541 
2045.597093 97.005791 
2046.561542 97.001453 
2047.525991 96.995189 
2048.490441 96.990862 
2049.454890 96.989434 
2050.419339 96.987939 
2051.383789 96.985755 
2052.348238 96.983145 
2053.312687 96.979647 
2054.277137 96.976479 
2055.241586 96.973771 
2056.206036 96.970770 
2057.170485 96.969333 
2058.134934 96.970257 
2059.099384 96.968244 
2060.063833 96.965514 
2061.028282 96.963801 
2061.992732 96.961872 
2062.957181 96.960442 
2063.921630 96.959183 
2064.886080 96.957175 
2065.850529 96.954618 
2066.814978 96.951893 
2067.779428 96.948607 
2068.743877 96.945319 
2069.708327 96.942446 
2070.672776 96.938742 
2071.637225 96.934915 
2072.601675 96.930249 
2073.566124 96.926913 
2074.530573 96.924835 
2075.495023 96.922242 
2076.459472 96.920365 
2077.423921 96.918889 
2078.388371 96.915993 
2079.352820 96.912518 
2080.317270 96.910243 
2081.281719 96.911318 
2082.246168 96.912225 
2083.210618 96.911414 
2084.175067 96.910872 
2085.139516 96.910555 
2086.103966 96.909757 
2087.068415 96.909151 
2088.032864 96.908564 
2088.997314 96.908339 
2089.961763 96.908130 
2090.926212 96.907219 
2091.890662 96.905873 
2092.855111 96.905405 
2093.819561 96.905675 
2094.784010 96.905490 
2095.748459 96.905277 
2096.712909 96.904817 
2097.677358 96.903726 
2098.641807 96.903559 
2099.606257 96.903727 
2100.570706 96.903280 
2101.535155 96.902169 
2102.499605 96.901066 
2103.464054 96.900168 
2104.428504 96.899879 
2105.392953 96.900124 
2106.357402 96.901618 
2107.321852 96.902909 
2108.286301 96.902903 
2109.250750 96.903133 
2110.215200 96.903103 
2111.179649 96.902520 
2112.144098 96.902484 
2113.108548 96.903483 
2114.072997 96.904620 
2115.037446 96.905013 
2116.001896 96.905441 
2116.966345 96.905851 
2117.930795 96.906012 
2118.895244 96.905504 
2119.859693 96.904783 
2120.824143 96.904465 
2121.788592 96.904328 
2122.753041 96.903858 
2123.717491 96.903384 
2124.681940 96.903305 
2125.646389 96.903839 
2126.610839 96.904430 
2127.575288 96.904195 
2128.539738 96.903573 
2129.504187 96.903446 
2130.468636 96.903573 
2131.433086 96.904032 
2132.397535 96.903146 
2133.361984 96.902128 
2134.326434 96.901855 
2135.290883 96.901390 
2136.255332 96.900407 
2137.219782 96.899252 
2138.184231 96.898576 
2139.148680 96.897550 
2140.113130 96.896126 
2141.077579 96.894561 
2142.042029 96.893261 
2143.006478 96.892630 
2143.970927 96.891405 
2144.935377 96.890008 
2145.899826 96.888987 
2146.864275 96.887509 
2147.828725 96.885433 
2148.793174 96.883568 
2149.757623 96.881762 
2150.722073 96.880118 
2151.686522 96.878019 
2152.650972 96.875431 
2153.615421 96.872850 
2154.579870 96.870897 
2155.544320 96.869503 
2156.508769 96.868154 
2157.473218 96.866193 
2158.437668 96.864337 
2159.402117 96.862747 
2160.366566 96.860981 
2161.331016 96.859171 
2162.295465 96.857798 
2163.259914 96.856217 
2164.224364 96.854403 
2165.188813 96.852857 
2166.153263 96.852106 
2167.117712 96.851609 
2168.082161 96.850691 
2169.046611 96.849140 
2170.011060 96.847897 
2170.975509 96.847312 
2171.939959 96.846490 
2172.904408 96.844968 
2173.868857 96.843474 
2174.833307 96.842565 
2175.797756 96.841269 
2176.762206 96.838829 
2177.726655 96.836442 
2178.691104 96.835045 
2179.655554 96.833948 
2180.620003 96.832667 
2181.584452 96.831544 
2182.548902 96.830417 
2183.513351 96.829713 
2184.477800 96.828355 
2185.442250 96.826667 
2186.406699 96.825947 
2187.371148 96.825667 
2188.335598 96.825046 
2189.300047 96.824087 
2190.264497 96.822725 
2191.228946 96.821774 
2192.193395 96.821162 
2193.157845 96.820003 
2194.122294 96.818770 
2195.086743 96.818433 
2196.051193 96.818641 
2197.015642 96.818301 
2197.980091 96.817227 
2198.944541 96.816613 
2199.908990 96.816840 
2200.873440 96.817008 
2201.837889 96.816581 
2202.802338 96.816527 
2203.766788 96.816288 
2204.731237 96.815197 
2205.695686 96.813778 
2206.660136 96.813169 
2207.624585 96.813467 
2208.589034 96.813322 
2209.553484 96.812642 
2210.517933 96.811842 
2211.482382 96.811797 
2212.446832 96.812565 
2213.411281 96.813129 
2214.375731 96.813697 
2215.340180 96.814212 
2216.304629 96.814813 
2217.269079 96.814842 
2218.233528 96.814738 
2219.197977 96.814874 
2220.162427 96.815471 
2221.126876 96.816556 
2222.091325 96.817380 
2223.055775 96.818142 
2224.020224 96.818989 
2224.984674 96.819497 
2225.949123 96.819211 
2226.913572 96.818578 
2227.878022 96.818468 
2228.842471 96.818334 
2229.806920 96.817315 
2230.771370 96.815794 
2231.735819 96.815357 
2232.700268 96.815022 
2233.664718 96.814349 
2234.629167 96.813078 
2235.593616 96.811665 
2236.558066 96.810732 
2237.522515 96.809841 
2238.486965 96.808964 
2239.451414 96.807877 
2240.415863 96.806629 
2241.380313 96.805403 
2242.344762 96.804186 
2243.309211 96.803332 
2244.273661 96.802686 
2245.238110 96.802541 
2246.202559 96.801430 
2247.167009 96.799211 
2248.131458 96.796872 
2249.095908 96.795027 
2250.060357 96.794007 
2251.024806 96.793602 
2251.989256 96.793550 
2252.953705 96.793535 
2253.918154 96.793265 
2254.882604 96.792462 
2255.847053 96.791588 
2256.811502 96.790548 
2257.775952 96.789312 
2258.740401 96.787659 
2259.704850 96.785728 
2260.669300 96.783990 
2261.633749 96.782568 
2262.598199 96.780890 
2263.562648 96.779484 
2264.527097 96.778511 
2265.491547 96.777633 
2266.455996 96.776867 
2267.420445 96.774936 
2268.384895 96.772636 
2269.349344 96.770666 
2270.313793 96.768409 
2271.278243 96.765982 
2272.242692 96.762756 
2273.207142 96.760575 
2274.171591 96.758446 
2275.136040 96.756546 
2276.100490 96.753201 
2277.064939 96.749908 
2278.029388 96.748078 
2278.993838 96.745159 
2279.958287 96.743377 
2280.922736 96.741773 
2281.887186 96.741370 
2282.851635 96.740670 
2283.816084 96.739617 
2284.780534 96.740683 
2285.744983 96.740452 
2286.709433 96.743771 
2287.673882 96.743842 
2288.638331 96.745752 
2289.602781 96.743836 
2290.567230 96.746050 
2291.531679 96.747180 
2292.496129 96.749434 
2293.460578 96.753022 
2294.425027 96.754857 
2295.389477 96.758746 
2296.353926 96.758965 
2297.318376 96.763105 
2298.282825 96.762002 
2299.247274 96.765577 
2300.211724 96.763516 
2301.176173 96.765061 
2302.140622 96.762309 
2303.105072 96.764666 
2304.069521 96.760934 
2305.033970 96.761549 
2305.998420 96.760720 
2306.962869 96.764754 
2307.927318 96.764988 
2308.891768 96.765582 
2309.856217 96.762061 
2310.820667 96.759947 
2311.785116 96.754840 
2312.749565 96.753950 
2313.714015 96.751583 
2314.678464 96.753942 
2315.642913 96.755704 
2316.607363 96.759439 
2317.571812 96.761980 
2318.536261 96.760861 
2319.500711 96.759437 
2320.465160 96.758661 
2321.429610 96.759168 
2322.394059 96.757253 
2323.358508 96.757701 
2324.322958 96.753737 
2325.287407 96.746247 
2326.251856 96.737871 
2327.216306 96.725558 
2328.180755 96.714218 
2329.145204 96.699649 
2330.109654 96.687579 
2331.074103 96.666809 
2332.038552 96.643193 
2333.003002 96.601933 
2333.967451 96.564612 
2334.931901 96.527748 
2335.896350 96.501381 
2336.860799 96.468768 
2337.825249 96.445066 
2338.789698 96.420062 
2339.754147 96.401213 
2340.718597 96.377404 
2341.683046 96.363389 
2342.647495 96.353915 
2343.611945 96.351471 
2344.576394 96.349682 
2345.540844 96.357030 
2346.505293 96.365831 
2347.469742 96.382728 
2348.434192 96.400402 
2349.398641 96.423287 
2350.363090 96.447631 
2351.327540 96.475536 
2352.291989 96.505597 
2353.256438 96.538122 
2354.220888 96.564058 
2355.185337 96.589731 
2356.149786 96.612902 
2357.114236 96.634219 
2358.078685 96.649620 
2359.043135 96.663341 
2360.007584 96.669765 
2360.972033 96.672052 
2361.936483 96.668109 
2362.900932 96.656254 
2363.865381 96.636085 
2364.829831 96.611242 
2365.794280 96.584904 
2366.758729 96.566883 
2367.723179 96.551363 
2368.687628 96.536849 
2369.652078 96.519174 
2370.616527 96.504434 
2371.580976 96.490006 
2372.545426 96.477876 
2373.509875 96.467215 
2374.474324 96.461807 
2375.438774 96.456392 
2376.403223 96.450533 
2377.367672 96.447710 
2378.332122 96.449646 
2379.296571 96.452335 
2380.261020 96.459499 
2381.225470 96.467206 
2382.189919 96.477486 
2383.154369 96.487229 
2384.118818 96.496918 
2385.083267 96.505132 
2386.047717 96.512319 
2387.012166 96.518432 
2387.976615 96.525668 
2388.941065 96.531954 
2389.905514 96.536990 
2390.869963 96.539491 
2391.834413 96.541704 
2392.798862 96.542140 
2393.763312 96.542718 
2394.727761 96.542387 
2395.692210 96.542048 
2396.656660 96.541629 
2397.621109 96.540471 
2398.585558 96.537712 
2399.550008 96.535570 
2400.514457 96.534645 
2401.478906 96.534646 
2402.443356 96.532881 
2403.407805 96.531322 
2404.372254 96.530040 
2405.336704 96.529393 
2406.301153 96.528713 
2407.265603 96.528714 
2408.230052 96.528817 
2409.194501 96.529134 
2410.158951 96.528808 
2411.123400 96.528190 
2412.087849 96.528124 
2413.052299 96.529432 
2414.016748 96.530426 
2414.981197 96.531754 
2415.945647 96.532469 
2416.910096 96.533738 
2417.874546 96.534544 
2418.838995 96.535627 
2419.803444 96.536700 
2420.767894 96.538023 
2421.732343 96.539393 
2422.696792 96.540474 
2423.661242 96.540814 
2424.625691 96.540873 
2425.590140 96.540357 
2426.554590 96.540323 
2427.519039 96.540074 
2428.483488 96.540167 
2429.447938 96.539521 
2430.412387 96.538686 
2431.376837 96.537492 
2432.341286 96.536409 
2433.305735 96.536202 
2434.270185 96.536360 
2435.234634 96.535571 
2436.199083 96.534723 
2437.163533 96.532619 
2438.127982 96.530498 
2439.092431 96.528320 
2440.056881 96.526465 
2441.021330 96.524212 
2441.985780 96.522146 
2442.950229 96.519655 
2443.914678 96.516766 
2444.879128 96.513587 
2445.843577 96.510780 
2446.808026 96.507710 
2447.772476 96.505408 
2448.736925 96.503372 
2449.701374 96.501534 
2450.665824 96.498344 
2451.630273 96.494607 
2452.594722 96.490484 
2453.559172 96.487092 
2454.523621 96.484122 
2455.488071 96.481230 
2456.452520 96.477615 
2457.416969 96.474081 
2458.381419 96.470649 
2459.345868 96.467730 
2460.310317 96.464491 
2461.274767 96.461742 
2462.239216 96.458977 
2463.203665 96.456486 
2464.168115 96.453345 
2465.132564 96.450145 
2466.097014 96.446949 
2467.061463 96.443148 
2468.025912 96.438628 
2468.990362 96.434786 
2469.954811 96.430498 
2470.919260 96.426430 
2471.883710 96.421780 
2472.848159 96.416988 
2473.812608 96.411650 
2474.777058 96.406902 
2475.741507 96.402846 
2476.705956 96.399553 
2477.670406 96.396492 
2478.634855 96.393633 
2479.599305 96.390683 
2480.563754 96.388154 
2481.528203 96.385285 
2482.492653 96.382846 
2483.457102 96.379942 
2484.421551 96.377738 
2485.386001 96.375507 
2486.350450 96.373218 
2487.314899 96.369971 
2488.279349 96.366839 
2489.243798 96.364231 
2490.208248 96.362474 
2491.172697 96.361034 
2492.137146 96.360010 
2493.101596 96.358243 
2494.066045 96.356485 
2495.030494 96.354279 
2495.994944 96.352586 
2496.959393 96.351037 
2497.923842 96.349873 
2498.888292 96.348219 
2499.852741 96.346050 
2500.817190 96.343609 
2501.781640 96.341380 
2502.746089 96.338851 
2503.710539 96.337149 
2504.674988 96.335775 
2505.639437 96.334474 
2506.603887 96.333044 
2507.568336 96.332372 
2508.532785 96.331544 
2509.497235 96.331334 
2510.461684 96.331040 
2511.426133 96.330872 
2512.390583 96.330857 
2513.355032 96.330777 
2514.319482 96.330480 
2515.283931 96.329543 
2516.248380 96.327820 
2517.212830 96.326910 
2518.177279 96.326118 
2519.141728 96.325598 
2520.106178 96.324426 
2521.070627 96.324147 
2522.035076 96.324025 
2522.999526 96.323672 
2523.963975 96.322830 
2524.928424 96.322536 
2525.892874 96.322637 
2526.857323 96.322465 
2527.821773 96.322062 
2528.786222 96.322257 
2529.750671 96.321297 
2530.715121 96.319486 
2531.679570 96.317300 
2532.644019 96.316355 
2533.608469 96.316073 
2534.572918 96.315825 
2535.537367 96.315072 
2536.501817 96.313817 
2537.466266 96.312123 
2538.430716 96.311010 
2539.395165 96.310184 
2540.359614 96.309808 
2541.324064 96.309005 
2542.288513 96.308161 
2543.252962 96.306469 
2544.217412 96.305037 
2545.181861 96.303320 
2546.146310 96.301493 
2547.110760 96.299776 
2548.075209 96.297918 
2549.039658 96.296298 
2550.004108 96.294771 
2550.968557 96.292424 
2551.933007 96.290150 
2552.897456 96.288431 
2553.861905 96.287723 
2554.826355 96.286311 
2555.790804 96.284688 
2556.755253 96.282886 
2557.719703 96.281595 
2558.684152 96.280136 
2559.648601 96.278084 
2560.613051 96.276396 
2561.577500 96.275556 
2562.541950 96.273761 
2563.506399 96.271623 
2564.470848 96.269343 
2565.435298 96.267230 
2566.399747 96.264908 
2567.364196 96.262511 
2568.328646 96.259922 
2569.293095 96.257965 
2570.257544 96.256103 
2571.221994 96.254294 
2572.186443 96.251549 
2573.150892 96.248774 
2574.115342 96.246029 
2575.079791 96.244181 
2576.044241 96.242570 
2577.008690 96.240701 
2577.973139 96.238032 
2578.937589 96.235257 
2579.902038 96.231962 
2580.866487 96.228794 
2581.830937 96.225902 
2582.795386 96.223376 
2583.759835 96.220458 
2584.724285 96.217844 
2585.688734 96.215046 
2586.653184 96.212307 
2587.617633 96.209511 
2588.582082 96.207662 
2589.546532 96.205538 
2590.510981 96.202998 
2591.475430 96.200289 
2592.439880 96.197827 
2593.404329 96.195286 
2594.368778 96.192969 
2595.333228 96.190525 
2596.297677 96.188322 
2597.262126 96.186122 
2598.226576 96.184093 
2599.191025 96.181794 
2600.155475 96.179356 
2601.119924 96.176711 
2602.084373 96.174775 
2603.048823 96.173224 
2604.013272 96.172269 
2604.977721 96.170731 
2605.942171 96.168584 
2606.906620 96.166187 
2607.871069 96.164301 
2608.835519 96.162376 
2609.799968 96.161023 
2610.764418 96.159365 
2611.728867 96.157072 
2612.693316 96.154345 
2613.657766 96.151933 
2614.622215 96.149401 
2615.586664 96.147270 
2616.551114 96.145358 
2617.515563 96.143655 
2618.480012 96.141806 
2619.444462 96.140093 
2620.408911 96.137618 
2621.373360 96.134944 
2622.337810 96.131571 
2623.302259 96.128964 
2624.266709 96.127495 
2625.231158 96.126574 
2626.195607 96.124851 
2627.160057 96.123070 
2628.124506 96.121274 
2629.088955 96.119181 
2630.053405 96.117139 
2631.017854 96.115985 
2631.982303 96.115089 
2632.946753 96.114443 
2633.911202 96.113212 
2634.875652 96.112206 
2635.840101 96.111381 
2636.804550 96.109931 
2637.769000 96.107693 
2638.733449 96.105989 
2639.697898 96.104900 
2640.662348 96.104611 
2641.626797 96.103677 
2642.591246 96.102263 
2643.555696 96.100013 
2644.520145 96.098252 
2645.484594 96.096992 
2646.449044 96.096084 
2647.413493 96.095173 
2648.377943 96.094138 
2649.342392 96.091788 
2650.306841 96.089162 
2651.271291 96.087013 
2652.235740 96.085770 
2653.200189 96.084498 
2654.164639 96.082722 
2655.129088 96.080180 
2656.093537 96.078832 
2657.057987 96.077549 
2658.022436 96.075876 
2658.986886 96.073893 
2659.951335 96.072673 
2660.915784 96.071664 
2661.880234 96.070614 
2662.844683 96.068951 
2663.809132 96.067472 
2664.773582 96.065743 
2665.738031 96.063666 
2666.702480 96.061466 
2667.666930 96.059942 
2668.631379 96.058243 
2669.595828 96.055265 
2670.560278 96.052014 
2671.524727 96.049504 
2672.489177 96.047077 
2673.453626 96.045003 
2674.418075 96.042229 
2675.382525 96.039688 
2676.346974 96.036867 
2677.311423 96.033794 
2678.275873 96.030359 
2679.240322 96.027777 
2680.204771 96.025602 
2681.169221 96.023468 
2682.133670 96.020716 
2683.098120 96.018424 
2684.062569 96.015531 
2685.027018 96.012190 
2685.991468 96.008068 
2686.955917 96.003900 
2687.920366 96.000668 
2688.884816 95.998695 
2689.849265 95.995696 
2690.813714 95.992015 
2691.778164 95.987840 
2692.742613 95.983994 
2693.707062 95.980089 
2694.671512 95.976755 
2695.635961 95.973299 
2696.600411 95.970212 
2697.564860 95.966383 
2698.529309 95.962053 
2699.493759 95.958164 
2700.458208 95.954886 
2701.422657 95.951656 
2702.387107 95.948498 
2703.351556 95.946031 
2704.316005 95.943725 
2705.280455 95.940408 
2706.244904 95.936899 
2707.209354 95.932884 
2708.173803 95.929429 
2709.138252 95.926379 
2710.102702 95.924075 
2711.067151 95.921677 
2712.031600 95.919224 
2712.996050 95.915715 
2713.960499 95.912062 
2714.924948 95.908225 
2715.889398 95.905225 
2716.853847 95.902800 
2717.818296 95.900171 
2718.782746 95.896997 
2719.747195 95.893915 
2720.711645 95.890549 
2721.676094 95.887432 
2722.640543 95.884458 
2723.604993 95.881722 
2724.569442 95.878589 
2725.533891 95.875345 
2726.498341 95.871634 
2727.462790 95.868593 
2728.427239 95.865422 
2729.391689 95.862751 
2730.356138 95.860272 
2731.320588 95.858385 
2732.285037 95.856189 
2733.249486 95.853485 
2734.213936 95.849679 
2735.178385 95.845930 
2736.142834 95.842444 
2737.107284 95.839552 
2738.071733 95.836520 
2739.036182 95.833383 
2740.000632 95.829004 
2740.965081 95.824403 
2741.929530 95.820208 
2742.893980 95.817392 
2743.858429 95.814876 
2744.822879 95.812775 
2745.787328 95.810780 
2746.751777 95.809132 
2747.716227 95.806126 
2748.680676 95.803590 
2749.645125 95.801197 
2750.609575 95.798101 
2751.574024 95.794920 
2752.538473 95.791952 
2753.502923 95.788684 
2754.467372 95.785935 
2755.431822 95.782870 
2756.396271 95.779666 
2757.360720 95.776082 
2758.325170 95.772894 
2759.289619 95.770319 
2760.254068 95.768322 
2761.218518 95.765411 
2762.182967 95.762116 
2763.147416 95.758591 
2764.111866 95.754718 
2765.076315 95.750325 
2766.040764 95.746235 
2767.005214 95.742156 
2767.969663 95.738882 
2768.934113 95.735053 
2769.898562 95.730974 
2770.863011 95.726605 
2771.827461 95.722652 
2772.791910 95.719666 
2773.756359 95.717885 
2774.720809 95.716320 
2775.685258 95.714727 
2776.649707 95.711535 
2777.614157 95.707429 
2778.578606 95.703113 
2779.543056 95.699471 
2780.507505 95.696037 
2781.471954 95.693972 
2782.436404 95.690970 
2783.400853 95.686719 
2784.365302 95.682411 
2785.329752 95.678579 
2786.294201 95.675124 
2787.258650 95.672429 
2788.223100 95.668653 
2789.187549 95.664211 
2790.151998 95.658737 
2791.116448 95.653852 
2792.080897 95.649119 
2793.045347 95.644813 
2794.009796 95.641051 
2794.974245 95.637399 
2795.938695 95.632935 
2796.903144 95.627486 
2797.867593 95.621644 
2798.832043 95.616645 
2799.796492 95.612718 
2800.760941 95.609388 
2801.725391 95.605219 
2802.689840 95.601744 
2803.654290 95.598438 
2804.618739 95.594993 
2805.583188 95.590908 
2806.547638 95.586332 
2807.512087 95.581638 
2808.476536 95.577238 
2809.440986 95.572669 
2810.405435 95.568627 
2811.369884 95.564766 
2812.334334 95.561300 
2813.298783 95.557105 
2814.263232 95.553082 
2815.227682 95.548766 
2816.192131 95.545206 
2817.156581 95.541730 
2818.121030 95.537186 
2819.085479 95.532011 
2820.049929 95.526395 
2821.014378 95.520064 
2821.978827 95.514720 
2822.943277 95.509618 
2823.907726 95.505004 
2824.872175 95.499463 
2825.836625 95.494330 
2826.801074 95.488902 
2827.765524 95.482729 
2828.729973 95.477016 
2829.694422 95.472413 
2830.658872 95.468408 
2831.623321 95.464957 
2832.587770 95.460871 
2833.552220 95.456564 
2834.516669 95.452217 
2835.481118 95.450052 
2836.445568 95.449298 
2837.410017 95.449515 
2838.374466 95.450042 
2839.338916 95.450978 
2840.303365 95.452168 
2841.267815 95.454560 
2842.232264 95.458157 
2843.196713 95.461768 
2844.161163 95.464690 
2845.125612 95.468091 
2846.090061 95.470557 
2847.054511 95.472644 
2848.018960 95.474035 
2848.983409 95.475242 
2849.947859 95.475636 
2850.912308 95.475317 
2851.876758 95.474261 
2852.841207 95.472265 
2853.805656 95.469695 
2854.770106 95.466432 
2855.734555 95.461716 
2856.699004 95.456564 
2857.663454 95.450219 
2858.627903 95.443813 
2859.592352 95.436452 
2860.556802 95.428587 
2861.521251 95.420065 
2862.485700 95.411125 
2863.450150 95.401797 
2864.414599 95.392897 
2865.379049 95.384140 
2866.343498 95.376712 
2867.307947 95.370046 
2868.272397 95.364153 
2869.236846 95.357570 
2870.201295 95.351059 
2871.165745 95.345082 
2872.130194 95.340209 
2873.094643 95.335660 
2874.059093 95.331369 
2875.023542 95.326692 
2875.987992 95.321515 
2876.952441 95.316467 
2877.916890 95.312565 
2878.881340 95.308668 
2879.845789 95.305521 
2880.810238 95.302093 
2881.774688 95.298164 
2882.739137 95.293881 
2883.703586 95.290301 
2884.668036 95.287037 
2885.632485 95.284927 
2886.596934 95.283832 
2887.561384 95.282368 
2888.525833 95.279635 
2889.490283 95.276478 
2890.454732 95.273393 
2891.419181 95.271225 
2892.383631 95.268646 
2893.348080 95.266474 
2894.312529 95.264149 
2895.276979 95.261703 
2896.241428 95.259226 
2897.205877 95.256932 
2898.170327 95.254236 
2899.134776 95.252231 
2900.099226 95.250009 
2901.063675 95.247220 
2902.028124 95.244022 
2902.992574 95.241332 
2903.957023 95.237888 
2904.921472 95.234440 
2905.885922 95.231706 
2906.850371 95.230420 
2907.814820 95.230026 
2908.779270 95.229949 
2909.743719 95.229515 
2910.708168 95.229377 
2911.672618 95.228628 
2912.637067 95.227797 
2913.601517 95.226703 
2914.565966 95.226613 
2915.530415 95.226978 
2916.494865 95.227044 
2917.459314 95.225782 
2918.423763 95.224008 
2919.388213 95.221018 
2920.352662 95.217353 
2921.317111 95.213329 
2922.281561 95.209359 
2923.246010 95.204590 
2924.210460 95.198495 
2925.174909 95.190864 
2926.139358 95.183702 
2927.103808 95.176413 
2928.068257 95.168991 
2929.032706 95.161023 
2929.997156 95.152118 
2930.961605 95.142246 
2931.926054 95.131857 
2932.890504 95.121107 
2933.854953 95.111130 
2934.819402 95.101594 
2935.783852 95.092087 
2936.748301 95.082132 
2937.712751 95.073335 
2938.677200 95.065593 
2939.641649 95.058094 
2940.606099 95.050514 
2941.570548 95.043470 
2942.534997 95.037154 
2943.499447 95.031800 
2944.463896 95.025858 
2945.428345 95.020337 
2946.392795 95.014944 
2947.357244 95.009519 
2948.321694 95.003278 
2949.286143 94.997782 
2950.250592 94.993237 
2951.215042 94.988977 
2952.179491 94.984573 
2953.143940 94.979989 
2954.108390 94.974631 
2955.072839 94.969516 
2956.037288 94.964707 
2957.001738 94.960709 
2957.966187 94.957121 
2958.930636 94.954537 
2959.895086 94.951550 
2960.859535 94.947431 
2961.823985 94.942602 
2962.788434 94.938461 
2963.752883 94.935256 
2964.717333 94.932540 
2965.681782 94.929450 
2966.646231 94.926463 
2967.610681 94.922366 
2968.575130 94.917861 
2969.539579 94.913353 
2970.504029 94.908885 
2971.468478 94.904309 
2972.432928 94.900227 
2973.397377 94.896024 
2974.361826 94.892000 
2975.326276 94.887421 
2976.290725 94.882520 
2977.255174 94.877680 
2978.219624 94.874239 
2979.184073 94.871580 
2980.148522 94.868755 
2981.112972 94.865583 
2982.077421 94.863008 
2983.041870 94.860138 
2984.006320 94.857062 
2984.970769 94.854080 
2985.935219 94.851005 
2986.899668 94.847358 
2987.864117 94.844127 
2988.828567 94.841000 
2989.793016 94.837667 
2990.757465 94.834137 
2991.721915 94.831286 
2992.686364 94.827623 
2993.650813 94.823562 
2994.615263 94.819216 
2995.579712 94.815167 
2996.544162 94.812609 
2997.508611 94.810144 
2998.473060 94.806304 
2999.437510 94.802729 
3000.401959 94.798535 
3001.366408 94.794471 
3002.330858 94.789836 
3003.295307 94.784518 
3004.259756 94.779705 
3005.224206 94.775978 
3006.188655 94.772271 
3007.153104 94.767373 
3008.117554 94.760723 
3009.082003 94.754764 
3010.046453 94.750330 
3011.010902 94.746148 
3011.975351 94.741368 
3012.939801 94.735477 
3013.904250 94.728310 
3014.868699 94.722047 
3015.833149 94.717602 
3016.797598 94.712846 
3017.762047 94.706889 
3018.726497 94.701488 
3019.690946 94.696485 
3020.655396 94.692807 
3021.619845 94.688255 
3022.584294 94.682957 
3023.548744 94.677098 
3024.513193 94.671769 
3025.477642 94.665780 
3026.442092 94.659935 
3027.406541 94.654464 
3028.370990 94.650508 
3029.335440 94.646789 
3030.299889 94.640774 
3031.264338 94.632901 
3032.228788 94.626248 
3033.193237 94.621146 
3034.157687 94.616958 
3035.122136 94.612098 
3036.086585 94.606377 
3037.051035 94.600171 
3038.015484 94.593019 
3038.979933 94.584179 
3039.944383 94.576399 
3040.908832 94.570995 
3041.873281 94.566974 
3042.837731 94.562435 
3043.802180 94.556720 
3044.766630 94.550918 
3045.731079 94.545245 
3046.695528 94.539289 
3047.659978 94.535625 
3048.624427 94.533916 
3049.588876 94.530279 
3050.553326 94.527008 
3051.517775 94.525975 
3052.482224 94.523759 
3053.446674 94.520653 
3054.411123 94.516523 
3055.375572 94.512509 
3056.340022 94.507985 
3057.304471 94.503609 
3058.268921 94.498402 
3059.233370 94.492951 
3060.197819 94.486880 
3061.162269 94.480433 
3062.126718 94.473270 
3063.091167 94.467256 
3064.055617 94.462886 
3065.020066 94.459626 
3065.984515 94.456636 
3066.948965 94.452879 
3067.913414 94.447665 
3068.877864 94.442425 
3069.842313 94.437527 
3070.806762 94.433214 
3071.771212 94.429423 
3072.735661 94.426707 
3073.700110 94.422689 
3074.664560 94.416898 
3075.629009 94.411066 
3076.593458 94.406066 
3077.557908 94.400380 
3078.522357 94.392925 
3079.486806 94.386252 
3080.451256 94.382983 
3081.415705 94.380004 
3082.380155 94.375255 
3083.344604 94.370878 
3084.309053 94.366775 
3085.273503 94.361470 
3086.237952 94.356336 
3087.202401 94.351290 
3088.166851 94.346466 
3089.131300 94.341526 
3090.095749 94.336381 
3091.060199 94.330852 
3092.024648 94.325639 
3092.989098 94.319936 
3093.953547 94.314576 
3094.917996 94.309096 
3095.882446 94.305081 
3096.846895 94.301378 
3097.811344 94.296049 
3098.775794 94.289514 
3099.740243 94.283810 
3100.704692 94.277560 
3101.669142 94.271009 
3102.633591 94.265319 
3103.598040 94.259749 
3104.562490 94.252402 
3105.526939 94.244493 
3106.491389 94.238748 
3107.455838 94.233178 
3108.420287 94.224667 
3109.384737 94.214995 
3110.349186 94.206164 
3111.313635 94.199439 
3112.278085 94.193934 
3113.242534 94.187756 
3114.206983 94.179134 
3115.171433 94.168894 
3116.135882 94.158501 
3117.100332 94.151202 
3118.064781 94.145065 
3119.029230 94.138639 
3119.993680 94.131348 
3120.958129 94.123026 
3121.922578 94.113150 
3122.887028 94.102771 
3123.851477 94.092403 
3124.815926 94.083043 
3125.780376 94.073872 
3126.744825 94.065118 
3127.709274 94.056247 
3128.673724 94.047490 
3129.638173 94.037390 
3130.602623 94.026307 
3131.567072 94.016477 
3132.531521 94.008818 
3133.495971 94.000427 
3134.460420 93.991762 
3135.424869 93.983019 
3136.389319 93.972801 
3137.353768 93.962118 
3138.318217 93.953271 
3139.282667 93.945654 
3140.247116 93.936831 
3141.211566 93.926709 
3142.176015 93.917818 
3143.140464 93.909376 
3144.104914 93.899610 
3145.069363 93.888211 
3146.033812 93.878389 
3146.998262 93.869416 
3147.962711 93.859975 
3148.927160 93.851073 
3149.891610 93.843602 
3150.856059 93.834207 
3151.820508 93.824259 
3152.784958 93.814404 
3153.749407 93.805588 
3154.713857 93.797327 
3155.678306 93.789219 
3156.642755 93.780434 
3157.607205 93.771768 
3158.571654 93.763142 
3159.536103 93.754273 
3160.500553 93.743205 
3161.465002 93.732003 
3162.429451 93.723493 
3163.393901 93.715919 
3164.358350 93.707752 
3165.322800 93.699034 
3166.287249 93.689861 
3167.251698 93.680263 
3168.216148 93.670444 
3169.180597 93.662543 
3170.145046 93.655352 
3171.109496 93.647363 
3172.073945 93.638162 
3173.038394 93.628982 
3174.002844 93.619933 
3174.967293 93.610908 
3175.931742 93.601274 
3176.896192 93.591451 
3177.860641 93.581310 
3178.825091 93.570333 
3179.789540 93.557934 
3180.753989 93.544987 
3181.718439 93.533531 
3182.682888 93.524226 
3183.647337 93.515162 
3184.611787 93.505884 
3185.576236 93.494586 
3186.540685 93.483004 
3187.505135 93.471597 
3188.469584 93.460203 
3189.434034 93.449177 
3190.398483 93.438805 
3191.362932 93.427550 
3192.327382 93.414229 
3193.291831 93.401558 
3194.256280 93.392854 
3195.220730 93.384665 
3196.185179 93.373407 
3197.149628 93.361067 
3198.114078 93.351225 
3199.078527 93.341798 
3200.042976 93.331274 
3201.007426 93.320082 
3201.971875 93.308259 
3202.936325 93.295836 
3203.900774 93.284677 
3204.865223 93.273534 
3205.829673 93.262722 
3206.794122 93.251088 
3207.758571 93.238349 
3208.723021 93.225108 
3209.687470 93.211686 
3210.651919 93.198772 
3211.616369 93.187645 
3212.580818 93.176667 
3213.545268 93.165878 
3214.509717 93.155533 
3215.474166 93.144795 
3216.438616 93.132678 
3217.403065 93.121211 
3218.367514 93.109253 
3219.331964 93.098060 
3220.296413 93.087817 
3221.260862 93.077123 
3222.225312 93.064392 
3223.189761 93.049940 
3224.154210 93.035691 
3225.118660 93.023073 
3226.083109 93.011862 
3227.047559 92.998752 
3228.012008 92.982907 
3228.976457 92.970637 
3229.940907 92.961658 
3230.905356 92.953763 
3231.869805 92.943189 
3232.834255 92.931226 
3233.798704 92.919619 
3234.763153 92.908531 
3235.727603 92.898458 
3236.692052 92.887620 
3237.656502 92.876219 
3238.620951 92.866985 
3239.585400 92.857051 
3240.549850 92.847631 
3241.514299 92.839299 
3242.478748 92.830119 
3243.443198 92.820354 
3244.407647 92.811363 
3245.372096 92.800653 
3246.336546 92.789702 
3247.300995 92.779477 
3248.265444 92.769225 
3249.229894 92.758790 
3250.194343 92.748879 
3251.158793 92.737129 
3252.123242 92.725239 
3253.087691 92.713466 
3254.052141 92.700718 
3255.016590 92.686918 
3255.981039 92.673148 
3256.945489 92.659811 
3257.909938 92.647676 
3258.874387 92.634523 
3259.838837 92.623208 
3260.803286 92.617259 
3261.767736 92.613905 
3262.732185 92.606826 
3263.696634 92.597201 
3264.661084 92.586883 
3265.625533 92.576827 
3266.589982 92.567087 
3267.554432 92.557838 
3268.518881 92.548298 
3269.483330 92.538630 
3270.447780 92.530187 
3271.412229 92.521055 
3272.376678 92.510359 
3273.341128 92.501204 
3274.305577 92.491308 
3275.270027 92.479812 
3276.234476 92.468847 
3277.198925 92.459207 
3278.163375 92.448577 
3279.127824 92.437291 
3280.092273 92.426534 
3281.056723 92.416940 
3282.021172 92.407562 
3282.985621 92.397030 
3283.950071 92.384216 
3284.914520 92.371327 
3285.878970 92.358219 
3286.843419 92.345397 
3287.807868 92.332416 
3288.772318 92.320197 
3289.736767 92.309130 
3290.701216 92.298943 
3291.665666 92.287346 
3292.630115 92.278722 
3293.594564 92.271180 
3294.559014 92.260131 
3295.523463 92.246471 
3296.487912 92.233558 
3297.452362 92.222626 
3298.416811 92.212742 
3299.381261 92.202077 
3300.345710 92.189981 
3301.310159 92.177158 
3302.274609 92.164496 
3303.239058 92.151456 
3304.203507 92.136882 
3305.167957 92.121172 
3306.132406 92.105376 
3307.096855 92.088670 
3308.061305 92.072623 
3309.025754 92.056795 
3309.990204 92.041076 
3310.954653 92.026584 
3311.919102 92.012958 
3312.883552 91.999231 
3313.848001 91.985014 
3314.812450 91.969077 
3315.776900 91.952211 
3316.741349 91.934491 
3317.705798 91.917133 
3318.670248 91.899977 
3319.634697 91.882524 
3320.599146 91.866876 
3321.563596 91.853410 
3322.528045 91.839414 
3323.492495 91.825423 
3324.456944 91.811379 
3325.421393 91.797894 
3326.385843 91.782456 
3327.350292 91.765381 
3328.314741 91.749052 
3329.279191 91.735282 
3330.243640 91.721992 
3331.208089 91.707317 
3332.172539 91.690393 
3333.136988 91.672575 
3334.101438 91.655177 
3335.065887 91.637298 
3336.030336 91.618323 
3336.994786 91.598215 
3337.959235 91.577259 
3338.923684 91.557906 
3339.888134 91.539278 
3340.852583 91.520255 
3341.817032 91.501287 
3342.781482 91.484518 
3343.745931 91.468795 
3344.710380 91.451367 
3345.674830 91.433113 
3346.639279 91.414574 
3347.603729 91.395260 
3348.568178 91.376935 
3349.532627 91.359575 
3350.497077 91.343069 
3351.461526 91.327304 
3352.425975 91.312944 
3353.390425 91.301142 
3354.354874 91.289975 
3355.319323 91.277581 
3356.283773 91.264254 
3357.248222 91.248774 
3358.212672 91.233031 
3359.177121 91.217010 
3360.141570 91.200495 
3361.106020 91.184097 
3362.070469 91.168085 
3363.034918 91.151266 
3363.999368 91.134909 
3364.963817 91.117996 
3365.928266 91.100678 
3366.892716 91.083339 
3367.857165 91.066083 
3368.821614 91.048546 
3369.786064 91.030488 
3370.750513 91.012543 
3371.714963 90.996275 
3372.679412 90.979396 
3373.643861 90.961620 
3374.608311 90.943278 
3375.572760 90.925098 
3376.537209 90.911124 
3377.501659 90.899335 
3378.466108 90.886371 
3379.430557 90.872342 
3380.395007 90.859198 
3381.359456 90.850792 
3382.323906 90.841885 
3383.288355 90.831053 
3384.252804 90.820260 
3385.217254 90.811382 
3386.181703 90.803349 
3387.146152 90.796629 
3388.110602 90.788540 
3389.075051 90.778357 
3390.039500 90.767151 
3391.003950 90.755065 
3391.968399 90.742326 
3392.932848 90.731283 
3393.897298 90.721575 
3394.861747 90.712348 
3395.826197 90.702947 
3396.790646 90.694296 
3397.755095 90.684648 
3398.719545 90.674566 
3399.683994 90.664669 
3400.648443 90.655258 
3401.612893 90.645282 
3402.577342 90.632606 
3403.541791 90.618364 
3404.506241 90.607386 
3405.470690 90.598627 
3406.435140 90.592388 
3407.399589 90.586996 
3408.364038 90.583076 
3409.328488 90.580596 
3410.292937 90.573832 
3411.257386 90.564979 
3412.221836 90.559387 
3413.186285 90.554441 
3414.150734 90.549335 
3415.115184 90.542426 
3416.079633 90.536087 
3417.044082 90.530663 
3418.008532 90.525679 
3418.972981 90.519721 
3419.937431 90.513397 
3420.901880 90.505848 
3421.866329 90.499251 
3422.830779 90.493085 
3423.795228 90.485438 
3424.759677 90.476750 
3425.724127 90.470407 
3426.688576 90.467953 
3427.653025 90.464496 
3428.617475 90.457603 
3429.581924 90.445204 
3430.546374 90.436134 
3431.510823 90.439483 
3432.475272 90.441758 
3433.439722 90.440959 
3434.404171 90.438083 
3435.368620 90.435187 
3436.333070 90.434702 
3437.297519 90.437598 
3438.261968 90.438604 
3439.226418 90.437584 
3440.190867 90.432827 
3441.155316 90.425371 
3442.119766 90.418179 
3443.084215 90.413817 
3444.048665 90.410898 
3445.013114 90.407410 
3445.977563 90.403387 
3446.942013 90.402488 
3447.906462 90.401574 
3448.870911 90.398360 
3449.835361 90.392349 
3450.799810 90.388417 
3451.764259 90.386007 
3452.728709 90.384230 
3453.693158 90.382780 
3454.657608 90.381797 
3455.622057 90.378637 
3456.586506 90.374056 
3457.550956 90.370244 
3458.515405 90.372888 
3459.479854 90.377894 
3460.444304 90.375974 
3461.408753 90.373062 
3462.373202 90.374200 
3463.337652 90.383130 
3464.302101 90.394210 
3465.266550 90.395020 
3466.231000 90.399605 
3467.195449 90.406284 
3468.159899 90.409900 
3469.124348 90.412727 
3470.088797 90.414334 
3471.053247 90.412492 
3472.017696 90.415965 
3472.982145 90.420520 
3473.946595 90.422782 
3474.911044 90.426202 
3475.875493 90.430075 
3476.839943 90.431332 
3477.804392 90.431086 
3478.768842 90.431101 
3479.733291 90.433387 
3480.697740 90.438727 
3481.662190 90.444699 
3482.626639 90.449348 
3483.591088 90.455526 
3484.555538 90.457311 
3485.519987 90.455345 
3486.484436 90.457509 
3487.448886 90.469534 
3488.413335 90.483388 
3489.377784 90.496773 
3490.342234 90.508532 
3491.306683 90.516107 
3492.271133 90.517171 
3493.235582 90.525904 
3494.200031 90.542203 
3495.164481 90.557489 
3496.128930 90.572724 
3497.093379 90.590537 
3498.057829 90.608951 
3499.022278 90.627707 
3499.986727 90.640143 
3500.951177 90.649655 
3501.915626 90.661059 
3502.880076 90.672677 
3503.844525 90.684500 
3504.808974 90.694425 
3505.773424 90.692919 
3506.737873 90.695576 
3507.702322 90.708628 
3508.666772 90.719314 
3509.631221 90.724154 
3510.595670 90.729939 
3511.560120 90.744083 
3512.524569 90.766433 
3513.489018 90.790696 
3514.453468 90.809391 
3515.417917 90.828401 
3516.382367 90.846518 
3517.346816 90.862142 
3518.311265 90.876939 
3519.275715 90.894292 
3520.240164 90.921559 
3521.204613 90.946218 
3522.169063 90.963229 
3523.133512 90.976923 
3524.097961 90.989958 
3525.062411 91.006977 
3526.026860 91.030520 
3526.991310 91.047815 
3527.955759 91.059509 
3528.920208 91.076782 
3529.884658 91.093839 
3530.849107 91.112013 
3531.813556 91.130007 
3532.778006 91.141389 
3533.742455 91.148892 
3534.706904 91.151318 
3535.671354 91.158113 
3536.635803 91.168807 
3537.600252 91.176406 
3538.564702 91.187135 
3539.529151 91.204799 
3540.493601 91.220140 
3541.458050 91.228868 
3542.422499 91.237155 
3543.386949 91.254655 
3544.351398 91.282061 
3545.315847 91.305080 
3546.280297 91.322823 
3547.244746 91.341275 
3548.209195 91.354916 
3549.173645 91.359844 
3550.138094 91.379666 
3551.102544 91.408090 
3552.066993 91.451252 
3553.031442 91.492456 
3553.995892 91.516008 
3554.960341 91.531505 
3555.924790 91.545081 
3556.889240 91.557064 
3557.853689 91.570693 
3558.818138 91.588374 
3559.782588 91.607317 
3560.747037 91.630176 
3561.711486 91.655059 
3562.675936 91.673486 
3563.640385 91.694741 
3564.604835 91.712737 
3565.569284 91.722027 
3566.533733 91.733233 
3567.498183 91.749259 
3568.462632 91.765478 
3569.427081 91.771459 
3570.391531 91.783756 
3571.355980 91.808072 
3572.320429 91.842088 
3573.284879 91.877152 
3574.249328 91.900477 
3575.213778 91.916416 
3576.178227 91.934840 
3577.142676 91.961059 
3578.107126 91.980469 
3579.071575 92.009863 
3580.036024 92.048012 
3581.000474 92.075672 
3581.964923 92.109338 
3582.929372 92.156491 
3583.893822 92.195019 
3584.858271 92.234233 
3585.822720 92.257037 
3586.787170 92.278726 
3587.751619 92.304867 
3588.716069 92.324429 
3589.680518 92.340339 
3590.644967 92.367808 
3591.609417 92.396624 
3592.573866 92.425437 
3593.538315 92.468659 
3594.502765 92.490487 
3595.467214 92.500629 
3596.431663 92.528466 
3597.396113 92.553210 
3598.360562 92.576613 
3599.325012 92.602877 
3600.289461 92.615265 
3601.253910 92.628124 
3602.218360 92.655916 
3603.182809 92.707377 
3604.147258 92.762546 
3605.111708 92.801033 
3606.076157 92.819305 
3607.040606 92.828458 
3608.005056 92.841812 
3608.969505 92.859286 
3609.933954 92.883125 
3610.898404 92.893280 
3611.862853 92.903376 
3612.827303 92.956942 
3613.791752 93.010916 
3614.756201 93.045208 
3615.720651 93.065448 
3616.685100 93.080364 
3617.649549 93.108736 
3618.613999 93.130698 
3619.578448 93.141776 
3620.542897 93.148924 
3621.507347 93.158804 
3622.471796 93.177961 
3623.436246 93.203994 
3624.400695 93.221803 
3625.365144 93.238854 
3626.329594 93.258469 
3627.294043 93.259017 
3628.258492 93.266988 
3629.222942 93.280323 
3630.187391 93.277050 
3631.151840 93.295798 
3632.116290 93.311897 
3633.080739 93.323882 
3634.045188 93.367617 
3635.009638 93.430681 
3635.974087 93.477889 
3636.938537 93.501532 
3637.902986 93.502915 
3638.867435 93.496277 
3639.831885 93.508992 
3640.796334 93.536878 
3641.760783 93.553830 
3642.725233 93.569143 
3643.689682 93.586742 
3644.654131 93.620331 
3645.618581 93.670588 
3646.583030 93.673923 
3647.547480 93.652272 
3648.511929 93.642470 
3649.476378 93.644033 
3650.440828 93.648751 
3651.405277 93.634687 
3652.369726 93.618009 
3653.334176 93.615441 
3654.298625 93.639565 
3655.263074 93.667637 
3656.227524 93.665110 
3657.191973 93.639943 
3658.156422 93.599190 
3659.120872 93.623693 
3660.085321 93.663680 
3661.049771 93.677970 
3662.014220 93.682661 
3662.978669 93.704908 
3663.943119 93.749949 
3664.907568 93.774127 
3665.872017 93.796238 
3666.836467 93.822473 
3667.800916 93.834765 
3668.765365 93.823786 
3669.729815 93.806957 
3670.694264 93.787053 
3671.658714 93.786653 
3672.623163 93.824828 
3673.587612 93.830902 
3674.552062 93.823051 
3675.516511 93.835487 
3676.480960 93.839378 
3677.445410 93.834836 
3678.409859 93.826681 
3679.374308 93.816518 
3680.338758 93.807029 
3681.303207 93.796929 
3682.267656 93.784895 
3683.232106 93.769961 
3684.196555 93.753714 
3685.161005 93.759082 
3686.125454 93.785175 
3687.089903 93.800465 
3688.054353 93.784865 
3689.018802 93.752523 
3689.983251 93.740311 
3690.947701 93.753478 
3691.912150 93.798985 
3692.876599 93.803147 
3693.841049 93.783884 
3694.805498 93.764740 
3695.769948 93.784822 
3696.734397 93.812537 
3697.698846 93.811896 
3698.663296 93.808952 
3699.627745 93.807597 
3700.592194 93.801140 
3701.556644 93.788615 
3702.521093 93.781054 
3703.485542 93.786404 
3704.449992 93.798618 
3705.414441 93.809456 
3706.378890 93.812961 
3707.343340 93.826082 
3708.307789 93.826233 
3709.272239 93.811091 
3710.236688 93.810927 
3711.201137 93.818651 
3712.165587 93.818487 
3713.130036 93.812577 
3714.094485 93.797417 
3715.058935 93.782325 
3716.023384 93.788979 
3716.987833 93.789859 
3717.952283 93.784420 
3718.916732 93.801514 
3719.881182 93.809818 
3720.845631 93.815680 
3721.810080 93.818774 
3722.774530 93.817139 
3723.738979 93.804172 
3724.703428 93.802908 
3725.667878 93.814663 
3726.632327 93.803112 
3727.596776 93.788590 
3728.561226 93.869093 
3729.525675 93.890647 
3730.490124 93.865963 
3731.454574 93.838199 
3732.419023 93.810548 
3733.383473 93.808315 
3734.347922 93.799142 
3735.312371 93.795010 
3736.276821 93.820300 
3737.241270 93.823992 
3738.205719 93.821138 
3739.170169 93.813888 
3740.134618 93.797242 
3741.099067 93.787053 
3742.063517 93.773290 
3743.027966 93.767835 
3743.992416 93.771070 
3744.956865 93.754777 
3745.921314 93.736036 
3746.885764 93.722927 
3747.850213 93.715920 
3748.814662 93.717260 
3749.779112 93.717883 
3750.743561 93.722562 
3751.708010 93.737097 
3752.672460 93.724849 
3753.636909 93.717251 
3754.601358 93.714419 
3755.565808 93.703520 
3756.530257 93.689932 
3757.494707 93.684683 
3758.459156 93.673204 
3759.423605 93.661341 
3760.388055 93.675792 
3761.352504 93.699416 
3762.316953 93.639750 
3763.281403 93.618328 
3764.245852 93.621712 
3765.210301 93.629792 
3766.174751 93.643424 
3767.139200 93.630667 
3768.103650 93.635187 
3769.068099 93.654927 
3770.032548 93.632754 
3770.996998 93.609204 
3771.961447 93.597158 
3772.925896 93.595857 
3773.890346 93.587786 
3774.854795 93.575038 
3775.819244 93.577840 
3776.783694 93.578129 
3777.748143 93.554704 
3778.712592 93.525513 
3779.677042 93.507187 
3780.641491 93.520656 
3781.605941 93.540903 
3782.570390 93.544594 
3783.534839 93.506313 
3784.499289 93.475496 
3785.463738 93.523575 
3786.428187 93.584861 
3787.392637 93.607788 
3788.357086 93.595263 
3789.321535 93.564780 
3790.285985 93.557111 
3791.250434 93.595373 
3792.214884 93.612062 
3793.179333 93.611220 
3794.143782 93.608617 
3795.108232 93.613036 
3796.072681 93.624932 
3797.037130 93.611675 
3798.001580 93.573631 
3798.966029 93.541796 
3799.930478 93.575502 
3800.894928 93.611212 
3801.859377 93.608353 
3802.823826 93.574416 
3803.788276 93.530725 
3804.752725 93.544015 
3805.717175 93.590377 
3806.681624 93.601762 
3807.646073 93.593037 
3808.610523 93.574226 
3809.574972 93.551353 
3810.539421 93.545284 
3811.503871 93.549476 
3812.468320 93.560301 
3813.432769 93.563852 
3814.397219 93.533250 
3815.361668 93.525300 
3816.326118 93.539844 
3817.290567 93.561133 
3818.255016 93.602499 
3819.219466 93.607151 
3820.183915 93.565329 
3821.148364 93.531830 
3822.112814 93.554276 
3823.077263 93.584752 
3824.041712 93.615443 
3825.006162 93.607205 
3825.970611 93.576111 
3826.935060 93.548974 
3827.899510 93.548981 
3828.863959 93.542270 
3829.828409 93.524816 
3830.792858 93.508827 
3831.757307 93.512274 
3832.721757 93.533669 
3833.686206 93.495845 
3834.650655 93.437790 
3835.615105 93.410948 
3836.579554 93.427525 
3837.544003 93.508208 
3838.508453 93.564765 
3839.472902 93.528809 
3840.437352 93.498451 
3841.401801 93.488441 
3842.366250 93.481367 
3843.330700 93.474210 
3844.295149 93.446472 
3845.259598 93.415839 
3846.224048 93.397376 
3847.188497 93.377934 
3848.152946 93.378734 
3849.117396 93.382901 
3850.081845 93.367674 
3851.046294 93.362575 
3852.010744 93.345468 
3852.975193 93.313624 
3853.939643 93.351877 
3854.904092 93.391119 
3855.868541 93.372724 
3856.832991 93.362435 
3857.797440 93.362231 
3858.761889 93.349913 
3859.726339 93.346389 
3860.690788 93.347087 
3861.655237 93.316670 
3862.619687 93.276352 
3863.584136 93.249290 
3864.548586 93.253568 
3865.513035 93.251911 
3866.477484 93.242437 
3867.441934 93.235711 
3868.406383 93.241336 
3869.370832 93.280702 
3870.335282 93.329802 
3871.299731 93.325396 
3872.264180 93.273953 
3873.228630 93.244515 
3874.193079 93.218726 
3875.157528 93.204045 
3876.121978 93.198144 
3877.086427 93.191387 
3878.050877 93.193268 
3879.015326 93.188528 
3879.979775 93.172498 
3880.944225 93.167666 
3881.908674 93.164082 
3882.873123 93.151145 
3883.837573 93.140080 
3884.802022 93.130759 
3885.766471 93.154298 
3886.730921 93.180514 
3887.695370 93.167565 
3888.659820 93.160948 
3889.624269 93.167923 
3890.588718 93.185943 
3891.553168 93.179470 
3892.517617 93.155354 
3893.482066 93.138674 
3894.446516 93.125004 
3895.410965 93.115570 
3896.375414 93.121649 
3897.339864 93.128675 
3898.304313 93.103729 
3899.268762 93.078636 
3900.233212 93.070139 
3901.197661 93.078339 
3902.162111 93.090796 
3903.126560 93.078658 
3904.091009 93.055905 
3905.055459 93.041351 
3906.019908 93.025899 
3906.984357 93.019874 
3907.948807 93.031442 
3908.913256 93.034601 
3909.877705 93.026219 
3910.842155 93.016710 
3911.806604 93.002110 
3912.771054 92.989134 
3913.735503 92.985253 
3914.699952 92.990342 
3915.664402 93.007410 
3916.628851 93.015209 
3917.593300 93.014241 
3918.557750 93.027305 
3919.522199 93.030498 
3920.486648 93.033443 
3921.451098 93.036475 
3922.415547 93.028504 
3923.379996 93.016641 
3924.344446 93.000542 
3925.308895 92.985898 
3926.273345 92.981939 
3927.237794 92.985265 
3928.202243 92.984362 
3929.166693 92.978792 
3930.131142 92.968441 
3931.095591 92.961776 
3932.060041 92.962060 
3933.024490 92.968312 
3933.988939 92.977098 
3934.953389 92.972321 
3935.917838 92.968095 
3936.882288 92.970409 
3937.846737 92.963572 
3938.811186 92.956300 
3939.775636 92.958695 
3940.740085 92.968392 
3941.704534 92.976318 
3942.668984 92.971921 
3943.633433 92.962833 
3944.597882 92.957652 
3945.562332 92.962471 
3946.526781 92.971284 
3947.491230 92.973627 
3948.455680 92.977686 
3949.420129 92.977875 
3950.384579 92.968369 
3951.349028 92.958997 
3952.313477 92.950105 
3953.277927 92.942662 
3954.242376 92.935503 
3955.206825 92.928142 
3956.171275 92.923137 
3957.135724 92.917551 
3958.100173 92.913644 
3959.064623 92.917403 
3960.029072 92.918074 
3960.993522 92.909631 
3961.957971 92.900479 
3962.922420 92.894452 
3963.886870 92.894116 
3964.851319 92.890905 
3965.815768 92.885845 
3966.780218 92.883981 
3967.744667 92.875800 
3968.709116 92.867570 
3969.673566 92.864619 
3970.638015 92.860711 
3971.602464 92.856303 
3972.566914 92.852203 
3973.531363 92.848412 
3974.495813 92.845837 
3975.460262 92.840610 
3976.424711 92.833714 
3977.389161 92.828710 
3978.353610 92.827759 
3979.318059 92.824898 
3980.282509 92.816732 
3981.246958 92.810129 
3982.211407 92.803927 
3983.175857 92.798508 
3984.140306 92.793449 
3985.104756 92.789443 
3986.069205 92.785494 
3987.033654 92.780262 
3987.998104 92.777391 
3988.962553 92.776234 
3989.927002 92.771422 
3990.891452 92.766968 
3991.855901 92.766096 
3992.820350 92.765802 
3993.784800 92.762108 
3994.749249 92.756951 
3995.713698 92.753047 
3996.678148 92.749820 
3997.642597 92.746581 
3998.607047 92.744870 
3999.571496 92.743066 
4000.535945 92.740239 