##YUNITS=%T
399.282035 79.973790 
400.246484 79.700969 
401.210934 79.450146 
402.175383 79.737500 
403.139832 79.706099 
404.104282 78.501967 
405.068731 77.112083 
406.033181 75.873972 
406.997630 75.129271 
407.962079 74.508694 
408.926529 73.504897 
409.890978 71.971047 
410.855427 70.480591 
411.819877 69.036406 
412.784326 67.425663 
413.748775 65.730196 
414.713225 64.037902 
415.677674 62.428169 
416.642124 60.891954 
417.606573 59.099309 
418.571022 57.489691 
419.535472 56.072326 
420.499921 55.176538 
421.464370 54.865551 
422.428820 54.969912 
423.393269 55.270522 
424.357718 55.752370 
425.322168 56.317222 
426.286617 57.040876 
427.251066 57.760547 
428.215516 58.546612 
429.179965 59.419832 
430.144415 60.310425 
431.108864 61.355512 
432.073313 62.605854 
433.037763 63.945119 
434.002212 65.310741 
434.966661 66.637233 
435.931111 67.064555 
436.895560 67.247425 
437.860009 68.303942 
438.824459 69.554441 
439.788908 70.658027 
440.753358 71.066098 
441.717807 70.977653 
442.682256 71.015446 
443.646706 71.432878 
444.611155 71.709739 
445.575604 71.748133 
446.540054 71.769538 
447.504503 71.824282 
448.468952 71.936795 
449.433402 72.133396 
450.397851 72.479911 
451.362300 72.849055 
452.326750 73.267339 
453.291199 73.650174 
454.255649 73.851052 
455.220098 73.989283 
456.184547 74.132239 
457.148997 74.295770 
458.113446 74.486447 
459.077895 74.705169 
460.042345 74.837882 
461.006794 74.770862 
461.971243 74.716789 
462.935693 74.661863 
463.900142 74.575940 
464.864592 74.459443 
465.829041 74.356323 
466.793490 74.205285 
467.757940 73.970778 
468.722389 73.604951 
469.686838 73.193778 
470.651288 72.783782 
471.615737 72.406185 
472.580186 72.083234 
473.544636 71.875535 
474.509085 71.821844 
475.473534 71.893370 
476.437984 71.898571 
477.402433 71.853913 
478.366883 71.757681 
479.331332 71.655439 
480.295781 71.591966 
481.260231 71.563758 
482.224680 71.590587 
483.189129 71.643701 
484.153579 71.666951 
485.118028 71.643204 
486.082477 71.555033 
487.046927 71.467299 
488.011376 71.421342 
488.975826 71.422725 
489.940275 71.396972 
490.904724 71.379207 
491.869174 71.314495 
492.833623 71.201809 
493.798072 71.106765 
494.762522 70.989709 
495.726971 70.812230 
496.691420 70.621031 
497.655870 70.384627 
498.620319 70.206024 
499.584768 70.097948 
500.549218 70.103998 
501.513667 70.239463 
502.478117 70.491534 
503.442566 70.861535 
504.407015 71.258355 
505.371465 71.637958 
506.335914 71.975540 
507.300363 72.258452 
508.264813 72.550598 
509.229262 72.847461 
510.193711 73.201109 
511.158161 73.567999 
512.122610 73.933728 
513.087060 74.294340 
514.051509 74.632189 
515.015958 74.939034 
515.980408 75.194400 
516.944857 75.363469 
517.909306 75.549415 
518.873756 75.797275 
519.838205 76.106225 
520.802654 76.483175 
521.767104 76.878199 
522.731553 77.216156 
523.696002 77.466130 
524.660452 77.559621 
525.624901 77.540586 
526.589351 77.443065 
527.553800 77.306490 
528.518249 77.205815 
529.482699 77.208772 
530.447148 77.304810 
531.411597 77.504575 
532.376047 77.756794 
533.340496 78.024597 
534.304945 78.275902 
535.269395 78.522491 
536.233844 78.739846 
537.198294 78.911184 
538.162743 79.034967 
539.127192 79.160578 
540.091642 79.404360 
541.056091 79.788368 
542.020540 80.280102 
542.984990 80.889587 
543.949439 81.525952 
544.913888 82.166993 
545.878338 82.798095 
546.842787 83.378204 
547.807236 83.949676 
548.771686 84.542574 
549.736135 85.145874 
550.700585 85.812828 
551.665034 86.534101 
552.629483 87.293754 
553.593933 88.053715 
554.558382 88.776359 
555.522831 89.429231 
556.487281 89.991676 
557.451730 90.516768 
558.416179 91.027514 
559.380629 91.522649 
560.345078 92.018995 
561.309528 92.475208 
562.273977 92.895364 
563.238426 93.286740 
564.202876 93.667566 
565.167325 94.028191 
566.131774 94.354073 
567.096224 94.685979 
568.060673 95.007068 
569.025122 95.279142 
569.989572 95.551560 
570.954021 95.829319 
571.918470 96.136481 
572.882920 96.472230 
573.847369 96.804881 
574.811819 97.142679 
575.776268 97.508783 
576.740717 97.873666 
577.705167 98.200887 
578.669616 98.451803 
579.634065 98.607542 
580.598515 98.703352 
581.562964 98.744235 
582.527413 98.760509 
583.491863 98.811662 
584.456312 98.960306 
585.420762 99.175666 
586.385211 99.449731 
587.349660 99.723009 
588.314110 99.963819 
589.278559 100.160176 
590.243008 100.327512 
591.207458 100.435651 
592.171907 100.494391 
593.136356 100.513737 
594.100806 100.525280 
595.065255 100.559614 
596.029704 100.623960 
596.994154 100.703908 
597.958603 100.784366 
598.923053 100.880734 
599.887502 100.998889 
600.851951 101.090240 
601.816401 101.158580 
602.780850 101.214590 
603.745299 101.229213 
604.709749 101.216727 
605.674198 101.209180 
606.638647 101.224412 
607.603097 101.262713 
608.567546 101.339493 
609.531996 101.421941 
610.496445 101.449993 
611.460894 101.413537 
612.425344 101.315618 
613.389793 101.187533 
614.354242 101.077836 
615.318692 101.017197 
616.283141 101.021671 
617.247590 101.104494 
618.212040 101.208632 
619.176489 101.301342 
620.140938 101.344536 
621.105388 101.343285 
622.069837 101.293478 
623.034287 101.220324 
623.998736 101.144121 
624.963185 101.091059 
625.927635 101.059972 
626.892084 101.058145 
627.856533 101.087245 
628.820983 101.127467 
629.785432 101.171086 
630.749881 101.218145 
631.714331 101.262436 
632.678780 101.297241 
633.643230 101.308241 
634.607679 101.307740 
635.572128 101.308672 
636.536578 101.317931 
637.501027 101.348414 
638.465476 101.394405 
639.429926 101.452070 
640.394375 101.513161 
641.358824 101.570722 
642.323274 101.609837 
643.287723 101.623453 
644.252172 101.631710 
645.216622 101.627538 
646.181071 101.632619 
647.145521 101.644252 
648.109970 101.653827 
649.074419 101.660380 
650.038869 101.673537 
651.003318 101.691236 
651.967767 101.696175 
652.932217 101.695305 
653.896666 101.698960 
654.861115 101.703607 
655.825565 101.713249 
656.790014 101.725808 
657.754464 101.735305 
658.718913 101.740029 
659.683362 101.741430 
660.647812 101.738162 
661.612261 101.726483 
662.576710 101.714374 
663.541160 101.701334 
664.505609 101.690435 
665.470058 101.682119 
666.434508 101.663922 
667.398957 101.646632 
668.363406 101.627524 
669.327856 101.619662 
670.292305 101.607177 
671.256755 101.578685 
672.221204 101.552197 
673.185653 101.518767 
674.150103 101.493279 
675.114552 101.483106 
676.079001 101.485782 
677.043451 101.504187 
678.007900 101.516759 
678.972349 101.530663 
679.936799 101.527835 
680.901248 101.535420 
681.865698 101.529889 
682.830147 101.514254 
683.794596 101.498625 
684.759046 101.472183 
685.723495 101.457889 
686.687944 101.484245 
687.652394 101.534471 
688.616843 101.594172 
689.581292 101.656621 
690.545742 101.703787 
691.510191 101.732042 
692.474640 101.735313 
693.439090 101.702291 
694.403539 101.661946 
695.367989 101.630025 
696.332438 101.614021 
697.296887 101.613289 
698.261337 101.623474 
699.225786 101.635263 
700.190235 101.643868 
701.154685 101.649156 
702.119134 101.651279 
703.083583 101.637302 
704.048033 101.624037 
705.012482 101.624006 
705.976932 101.626650 
706.941381 101.641021 
707.905830 101.660896 
708.870280 101.687780 
709.834729 101.718908 
710.799178 101.741473 
711.763628 101.749218 
712.728077 101.736817 
713.692526 101.717037 
714.656976 101.678314 
715.621425 101.657338 
716.585874 101.663862 
717.550324 101.682698 
718.514773 101.718511 
719.479223 101.777368 
720.443672 101.823901 
721.408121 101.850794 
722.372571 101.866219 
723.337020 101.862545 
724.301469 101.844696 
725.265919 101.808902 
726.230368 101.765976 
727.194817 101.743226 
728.159267 101.742020 
729.123716 101.761359 
730.088166 101.793438 
731.052615 101.833565 
732.017064 101.874599 
732.981514 101.905575 
733.945963 101.926834 
734.910412 101.940176 
735.874862 101.959060 
736.839311 101.984047 
737.803760 102.013284 
738.768210 102.046333 
739.732659 102.074370 
740.697108 102.096145 
741.661558 102.115757 
742.626007 102.130848 
743.590457 102.147243 
744.554906 102.160419 
745.519355 102.172557 
746.483805 102.181679 
747.448254 102.191515 
748.412703 102.202827 
749.377153 102.212814 
750.341602 102.221753 
751.306051 102.228543 
752.270501 102.242962 
753.234950 102.259554 
754.199400 102.269385 
755.163849 102.277025 
756.128298 102.281841 
757.092748 102.280944 
758.057197 102.276156 
759.021646 102.275545 
759.986096 102.281194 
760.950545 102.294223 
761.914994 102.315907 
762.879444 102.341962 
763.843893 102.365506 
764.808342 102.387438 
765.772792 102.397283 
766.737241 102.393175 
767.701691 102.384708 
768.666140 102.381412 
769.630589 102.383822 
770.595039 102.394361 
771.559488 102.408770 
772.523937 102.427266 
773.488387 102.444867 
774.452836 102.460671 
775.417285 102.472648 
776.381735 102.481890 
777.346184 102.489951 
778.310634 102.496341 
779.275083 102.496369 
780.239532 102.496900 
781.203982 102.494372 
782.168431 102.486829 
783.132880 102.474650 
784.097330 102.467275 
785.061779 102.470230 
786.026228 102.476084 
786.990678 102.479584 
787.955127 102.481860 
788.919576 102.482322 
789.884026 102.480048 
790.848475 102.474915 
791.812925 102.474500 
792.777374 102.480708 
793.741823 102.491860 
794.706273 102.500791 
795.670722 102.502474 
796.635171 102.496942 
797.599621 102.488070 
798.564070 102.473644 
799.528519 102.461218 
800.492969 102.459572 
801.457418 102.471288 
802.421868 102.490728 
803.386317 102.510591 
804.350766 102.526736 
805.315216 102.541972 
806.279665 102.550964 
807.244114 102.555675 
808.208564 102.560086 
809.173013 102.567850 
810.137462 102.578271 
811.101912 102.585552 
812.066361 102.587790 
813.030810 102.593960 
813.995260 102.602764 
814.959709 102.614915 
815.924159 102.632941 
816.888608 102.657486 
817.853057 102.677057 
818.817507 102.683257 
819.781956 102.677077 
820.746405 102.665339 
821.710855 102.658087 
822.675304 102.659807 
823.639753 102.669955 
824.604203 102.689732 
825.568652 102.709296 
826.533102 102.720530 
827.497551 102.718094 
828.462000 102.705728 
829.426450 102.693177 
830.390899 102.685960 
831.355348 102.683601 
832.319798 102.684973 
833.284247 102.687403 
834.248696 102.689151 
835.213146 102.685248 
836.177595 102.676639 
837.142044 102.666768 
838.106494 102.659225 
839.070943 102.652635 
840.035393 102.646508 
840.999842 102.645195 
841.964291 102.645632 
842.928741 102.645311 
843.893190 102.642051 
844.857639 102.633676 
845.822089 102.627549 
846.786538 102.623139 
847.750987 102.619015 
848.715437 102.614853 
849.679886 102.607024 
850.644336 102.594283 
851.608785 102.577789 
852.573234 102.561876 
853.537684 102.550939 
854.502133 102.547588 
855.466582 102.552462 
856.431032 102.561583 
857.395481 102.574161 
858.359930 102.586026 
859.324380 102.594470 
860.288829 102.597200 
861.253278 102.596453 
862.217728 102.596990 
863.182177 102.599132 
864.146627 102.600512 
865.111076 102.601153 
866.075525 102.600439 
867.039975 102.600945 
868.004424 102.603848 
868.968873 102.606966 
869.933323 102.608444 
870.897772 102.610910 
871.862221 102.612433 
872.826671 102.612340 
873.791120 102.612370 
874.755570 102.610688 
875.720019 102.604850 
876.684468 102.593365 
877.648918 102.579891 
878.613367 102.571336 
879.577816 102.570739 
880.542266 102.576154 
881.506715 102.582196 
882.471164 102.584205 
883.435614 102.578747 
884.400063 102.565667 
885.364512 102.548116 
886.328962 102.529992 
887.293411 102.518715 
888.257861 102.519152 
889.222310 102.527578 
890.186759 102.539982 
891.151209 102.549352 
892.115658 102.550211 
893.080107 102.540139 
894.044557 102.525155 
895.009006 102.516659 
895.973455 102.518504 
896.937905 102.527774 
897.902354 102.538688 
898.866804 102.549230 
899.831253 102.562229 
900.795702 102.576814 
901.760152 102.590859 
902.724601 102.606508 
903.689050 102.626703 
904.653500 102.646386 
905.617949 102.660964 
906.582398 102.671295 
907.546848 102.680385 
908.511297 102.693223 
909.475746 102.713564 
910.440196 102.740564 
911.404645 102.772252 
912.369095 102.801194 
913.333544 102.816425 
914.297993 102.814540 
915.262443 102.801599 
916.226892 102.786588 
917.191341 102.776953 
918.155791 102.773414 
919.120240 102.775316 
920.084689 102.780337 
921.049139 102.783566 
922.013588 102.780625 
922.978038 102.774346 
923.942487 102.767932 
924.906936 102.763874 
925.871386 102.763204 
926.835835 102.767041 
927.800284 102.776307 
928.764734 102.787193 
929.729183 102.796543 
930.693632 102.802417 
931.658082 102.808814 
932.622531 102.819484 
933.586980 102.831991 
934.551430 102.842769 
935.515879 102.852059 
936.480329 102.858598 
937.444778 102.859835 
938.409227 102.855105 
939.373677 102.851097 
940.338126 102.853401 
941.302575 102.860613 
942.267025 102.865037 
943.231474 102.863280 
944.195923 102.856933 
945.160373 102.845130 
946.124822 102.831359 
947.089272 102.820428 
948.053721 102.818678 
949.018170 102.827958 
949.982620 102.843148 
950.947069 102.855621 
951.911518 102.857389 
952.875968 102.843074 
953.840417 102.813486 
954.804866 102.777910 
955.769316 102.748156 
956.733765 102.733458 
957.698214 102.735916 
958.662664 102.749237 
959.627113 102.766321 
960.591563 102.781999 
961.556012 102.790879 
962.520461 102.788660 
963.484911 102.774802 
964.449360 102.756885 
965.413809 102.738599 
966.378259 102.719175 
967.342708 102.696645 
968.307157 102.674154 
969.271607 102.656142 
970.236056 102.643756 
971.200506 102.635882 
972.164955 102.634356 
973.129404 102.636105 
974.093854 102.633375 
975.058303 102.624083 
976.022752 102.611139 
976.987202 102.599558 
977.951651 102.592123 
978.916100 102.590140 
979.880550 102.591615 
980.844999 102.596591 
981.809448 102.603446 
982.773898 102.604398 
983.738347 102.592185 
984.702797 102.566197 
985.667246 102.532875 
986.631695 102.504239 
987.596145 102.490943 
988.560594 102.498207 
989.525043 102.524061 
990.489493 102.556174 
991.453942 102.581319 
992.418391 102.592438 
993.382841 102.591160 
994.347290 102.582690 
995.311740 102.572370 
996.276189 102.565829 
997.240638 102.566089 
998.205088 102.570859 
999.169537 102.577356 
1000.133986 102.584102 
1001.098436 102.594948 
1002.062885 102.611968 
1003.027334 102.630905 
1003.991784 102.646036 
1004.956233 102.655798 
1005.920682 102.661188 
1006.885132 102.658857 
1007.849581 102.650531 
1008.814031 102.640438 
1009.778480 102.634416 
1010.742929 102.635687 
1011.707379 102.642397 
1012.671828 102.651999 
1013.636277 102.665140 
1014.600727 102.677551 
1015.565176 102.682271 
1016.529625 102.676739 
1017.494075 102.666172 
1018.458524 102.657961 
1019.422974 102.656332 
1020.387423 102.659291 
1021.351872 102.666157 
1022.316322 102.675938 
1023.280771 102.684760 
1024.245220 102.690566 
1025.209670 102.692272 
1026.174119 102.694822 
1027.138568 102.698861 
1028.103018 102.700074 
1029.067467 102.696906 
1030.031916 102.691976 
1030.996366 102.688907 
1031.960815 102.689666 
1032.925265 102.692912 
1033.889714 102.700438 
1034.854163 102.711088 
1035.818613 102.721115 
1036.783062 102.728007 
1037.747511 102.731564 
1038.711961 102.731856 
1039.676410 102.726192 
1040.640859 102.718454 
1041.605309 102.714511 
1042.569758 102.718251 
1043.534208 102.731246 
1044.498657 102.748184 
1045.463106 102.764288 
1046.427556 102.776568 
1047.392005 102.780910 
1048.356454 102.778333 
1049.320904 102.772070 
1050.285353 102.770015 
1051.249802 102.776926 
1052.214252 102.789368 
1053.178701 102.801548 
1054.143150 102.813701 
1055.107600 102.826970 
1056.072049 102.838792 
1057.036499 102.847303 
1058.000948 102.853141 
1058.965397 102.860284 
1059.929847 102.868612 
1060.894296 102.874813 
1061.858745 102.879934 
1062.823195 102.886482 
1063.787644 102.895807 
1064.752093 102.905668 
1065.716543 102.913132 
1066.680992 102.920911 
1067.645442 102.927691 
1068.609891 102.934109 
1069.574340 102.940217 
1070.538790 102.945534 
1071.503239 102.952035 
1072.467688 102.957544 
1073.432138 102.961009 
1074.396587 102.964001 
1075.361036 102.965241 
1076.325486 102.965533 
1077.289935 102.964548 
1078.254384 102.960506 
1079.218834 102.955488 
1080.183283 102.950155 
1081.147733 102.944325 
1082.112182 102.937089 
1083.076631 102.932995 
1084.041081 102.934842 
1085.005530 102.940497 
1085.969979 102.948548 
1086.934429 102.958556 
1087.898878 102.968959 
1088.863327 102.976224 
1089.827777 102.978618 
1090.792226 102.978491 
1091.756676 102.976986 
1092.721125 102.975583 
1093.685574 102.973521 
1094.650024 102.973028 
1095.614473 102.975766 
1096.578922 102.980920 
1097.543372 102.983630 
1098.507821 102.984173 
1099.472270 102.987077 
1100.436720 102.991777 
1101.401169 102.997127 
1102.365618 102.998954 
1103.330068 102.998340 
1104.294517 102.998077 
1105.258967 102.997348 
1106.223416 102.995925 
1107.187865 102.995602 
1108.152315 102.997248 
1109.116764 103.000402 
1110.081213 103.003002 
1111.045663 103.001729 
1112.010112 102.999535 
1112.974561 102.996595 
1113.939011 102.993439 
1114.903460 102.991062 
1115.867910 102.992324 
1116.832359 102.997965 
1117.796808 103.005140 
1118.761258 103.011454 
1119.725707 103.015534 
1120.690156 103.017166 
1121.654606 103.017387 
1122.619055 103.016861 
1123.583504 103.014758 
1124.547954 103.013337 
1125.512403 103.017822 
1126.476852 103.025979 
1127.441302 103.034444 
1128.405751 103.040667 
1129.370201 103.046239 
1130.334650 103.051208 
1131.299099 103.056115 
1132.263549 103.061269 
1133.227998 103.065970 
1134.192447 103.069939 
1135.156897 103.071683 
1136.121346 103.075883 
1137.085795 103.084501 
1138.050245 103.095827 
1139.014694 103.107167 
1139.979144 103.117263 
1140.943593 103.126864 
1141.908042 103.131219 
1142.872492 103.130482 
1143.836941 103.127537 
1144.801390 103.123803 
1145.765840 103.121134 
1146.730289 103.120907 
1147.694738 103.122373 
1148.659188 103.125931 
1149.623637 103.130898 
1150.588086 103.134838 
1151.552536 103.136218 
1152.516985 103.136065 
1153.481435 103.135195 
1154.445884 103.136567 
1155.410333 103.139788 
1156.374783 103.144403 
1157.339232 103.153458 
1158.303681 103.164067 
1159.268131 103.171919 
1160.232580 103.175393 
1161.197029 103.176777 
1162.161479 103.180337 
1163.125928 103.183630 
1164.090378 103.184998 
1165.054827 103.185178 
1166.019276 103.185121 
1166.983726 103.184839 
1167.948175 103.184233 
1168.912624 103.184102 
1169.877074 103.184916 
1170.841523 103.186050 
1171.805972 103.184744 
1172.770422 103.180228 
1173.734871 103.176021 
1174.699320 103.171802 
1175.663770 103.169084 
1176.628219 103.167118 
1177.592669 103.163583 
1178.557118 103.159815 
1179.521567 103.155207 
1180.486017 103.150898 
1181.450466 103.149860 
1182.414915 103.150872 
1183.379365 103.151917 
1184.343814 103.151556 
1185.308263 103.149700 
1186.272713 103.147964 
1187.237162 103.148793 
1188.201612 103.151220 
1189.166061 103.153885 
1190.130510 103.156168 
1191.094960 103.155564 
1192.059409 103.153758 
1193.023858 103.151662 
1193.988308 103.150457 
1194.952757 103.150838 
1195.917206 103.152142 
1196.881656 103.152920 
1197.846105 103.150810 
1198.810554 103.147838 
1199.775004 103.145638 
1200.739453 103.142860 
1201.703903 103.139423 
1202.668352 103.138194 
1203.632801 103.137457 
1204.597251 103.135223 
1205.561700 103.133805 
1206.526149 103.134894 
1207.490599 103.138495 
1208.455048 103.141770 
1209.419497 103.142047 
1210.383947 103.139678 
1211.348396 103.138396 
1212.312846 103.140135 
1213.277295 103.145193 
1214.241744 103.152062 
1215.206194 103.156987 
1216.170643 103.158666 
1217.135092 103.157244 
1218.099542 103.155462 
1219.063991 103.156092 
1220.028440 103.158798 
1220.992890 103.161364 
1221.957339 103.161066 
1222.921788 103.158275 
1223.886238 103.155116 
1224.850687 103.153255 
1225.815137 103.151519 
1226.779586 103.148994 
1227.744035 103.147753 
1228.708485 103.148271 
1229.672934 103.147543 
1230.637383 103.145428 
1231.601833 103.144592 
1232.566282 103.144367 
1233.530731 103.142612 
1234.495181 103.139890 
1235.459630 103.136921 
1236.424080 103.132958 
1237.388529 103.128481 
1238.352978 103.125099 
1239.317428 103.124355 
1240.281877 103.126820 
1241.246326 103.127581 
1242.210776 103.124150 
1243.175225 103.119275 
1244.139674 103.116920 
1245.104124 103.116091 
1246.068573 103.114128 
1247.033022 103.111435 
1247.997472 103.108467 
1248.961921 103.104363 
1249.926371 103.099349 
1250.890820 103.094006 
1251.855269 103.088443 
1252.819719 103.082270 
1253.784168 103.073713 
1254.748617 103.061784 
1255.713067 103.050918 
1256.677516 103.042704 
1257.641965 103.034706 
1258.606415 103.026967 
1259.570864 103.019548 
1260.535314 103.012337 
1261.499763 103.004120 
1262.464212 102.994695 
1263.428662 102.985352 
1264.393111 102.976420 
1265.357560 102.968271 
1266.322010 102.960409 
1267.286459 102.952489 
1268.250908 102.945768 
1269.215358 102.940906 
1270.179807 102.938135 
1271.144256 102.937766 
1272.108706 102.941167 
1273.073155 102.945730 
1274.037605 102.949301 
1275.002054 102.952491 
1275.966503 102.957359 
1276.930953 102.965575 
1277.895402 102.976278 
1278.859851 102.986556 
1279.824301 102.996504 
1280.788750 103.006494 
1281.753199 103.016560 
1282.717649 103.027651 
1283.682098 103.039574 
1284.646548 103.052017 
1285.610997 103.063379 
1286.575446 103.071693 
1287.539896 103.077298 
1288.504345 103.083292 
1289.468794 103.089531 
1290.433244 103.094068 
1291.397693 103.095942 
1292.362142 103.095486 
1293.326592 103.094033 
1294.291041 103.092798 
1295.255490 103.091640 
1296.219940 103.091110 
1297.184389 103.092129 
1298.148839 103.091834 
1299.113288 103.088434 
1300.077737 103.081899 
1301.042187 103.075357 
1302.006636 103.070408 
1302.971085 103.068464 
1303.935535 103.067269 
1304.899984 103.066115 
1305.864433 103.063250 
1306.828883 103.058293 
1307.793332 103.051422 
1308.757782 103.043292 
1309.722231 103.036640 
1310.686680 103.031220 
1311.651130 103.025267 
1312.615579 103.019278 
1313.580028 103.014106 
1314.544478 103.010052 
1315.508927 103.006955 
1316.473376 103.004817 
1317.437826 103.003007 
1318.402275 103.000857 
1319.366724 102.997805 
1320.331174 102.994408 
1321.295623 102.990785 
1322.260073 102.987364 
1323.224522 102.984656 
1324.188971 102.984317 
1325.153421 102.986701 
1326.117870 102.990568 
1327.082319 102.995029 
1328.046769 102.999085 
1329.011218 103.002561 
1329.975667 103.004430 
1330.940117 103.004274 
1331.904566 103.003954 
1332.869016 103.005774 
1333.833465 103.010549 
1334.797914 103.017227 
1335.762364 103.024362 
1336.726813 103.027182 
1337.691262 103.026231 
1338.655712 103.025936 
1339.620161 103.026299 
1340.584610 103.025965 
1341.549060 103.025481 
1342.513509 103.026407 
1343.477958 103.026137 
1344.442408 103.024889 
1345.406857 103.022540 
1346.371307 103.021485 
1347.335756 103.026623 
1348.300205 103.029841 
1349.264655 103.032006 
1350.229104 103.033362 
1351.193553 103.033695 
1352.158003 103.033707 
1353.122452 103.034376 
1354.086901 103.034955 
1355.051351 103.037838 
1356.015800 103.041181 
1356.980250 103.043904 
1357.944699 103.046664 
1358.909148 103.048388 
1359.873598 103.048044 
1360.838047 103.045722 
1361.802496 103.041802 
1362.766946 103.036998 
1363.731395 103.033643 
1364.695844 103.030130 
1365.660294 103.027085 
1366.624743 103.024648 
1367.589192 103.022398 
1368.553642 103.018561 
1369.518091 103.010326 
1370.482541 103.001854 
1371.446990 102.999886 
1372.411439 102.995353 
1373.375889 102.986496 
1374.340338 102.977669 
1375.304787 102.971271 
1376.269237 102.964844 
1377.233686 102.959862 
1378.198135 102.959425 
1379.162585 102.964246 
1380.127034 102.970074 
1381.091484 102.970071 
1382.055933 102.973969 
1383.020382 102.985673 
1383.984832 102.999099 
1384.949281 103.012300 
1385.913730 103.025462 
1386.878180 103.036354 
1387.842629 103.047173 
1388.807078 103.061754 
1389.771528 103.078985 
1390.735977 103.095167 
1391.700426 103.108738 
1392.664876 103.119702 
1393.629325 103.129098 
1394.593775 103.136013 
1395.558224 103.142682 
1396.522673 103.149830 
1397.487123 103.154735 
1398.451572 103.157714 
1399.416021 103.159353 
1400.380471 103.158556 
1401.344920 103.153056 
1402.309369 103.145858 
1403.273819 103.148302 
1404.238268 103.146690 
1405.202718 103.134542 
1406.167167 103.118408 
1407.131616 103.103304 
1408.096066 103.093629 
1409.060515 103.082412 
1410.024964 103.070055 
1410.989414 103.058957 
1411.953863 103.045834 
1412.918312 103.030754 
1413.882762 103.020068 
1414.847211 103.011779 
1415.811660 103.002955 
1416.776110 102.990708 
1417.740559 102.977717 
1418.705009 102.964308 
1419.669458 102.952402 
1420.633907 102.953095 
1421.598357 102.953642 
1422.562806 102.949002 
1423.527255 102.942931 
1424.491705 102.937922 
1425.456154 102.932488 
1426.420603 102.927347 
1427.385053 102.923541 
1428.349502 102.922622 
1429.313952 102.923036 
1430.278401 102.922076 
1431.242850 102.922335 
1432.207300 102.927324 
1433.171749 102.932820 
1434.136198 102.937367 
1435.100648 102.943876 
1436.065097 102.951467 
1437.029546 102.947911 
1437.993996 102.943600 
1438.958445 102.941789 
1439.922894 102.945863 
1440.887344 102.955203 
1441.851793 102.958858 
1442.816243 102.961705 
1443.780692 102.961694 
1444.745141 102.959333 
1445.709591 102.957260 
1446.674040 102.954784 
1447.638489 102.948049 
1448.602939 102.945787 
1449.567388 102.946661 
1450.531837 102.944226 
1451.496287 102.942055 
1452.460736 102.943216 
1453.425186 102.946101 
1454.389635 102.938536 
1455.354084 102.931304 
1456.318534 102.926547 
1457.282983 102.926018 
1458.247432 102.924512 
1459.211882 102.922227 
1460.176331 102.924410 
1461.140780 102.926278 
1462.105230 102.926767 
1463.069679 102.926480 
1464.034128 102.926386 
1464.998578 102.927669 
1465.963027 102.927727 
1466.927477 102.927605 
1467.891926 102.927255 
1468.856375 102.925015 
1469.820825 102.920813 
1470.785274 102.918103 
1471.749723 102.919071 
1472.714173 102.920104 
1473.678622 102.922387 
1474.643071 102.926175 
1475.607521 102.927444 
1476.571970 102.923172 
1477.536420 102.919014 
1478.500869 102.915456 
1479.465318 102.913618 
1480.429768 102.915013 
1481.394217 102.915864 
1482.358666 102.915676 
1483.323116 102.914782 
1484.287565 102.913765 
1485.252014 102.913084 
1486.216464 102.912566 
1487.180913 102.910658 
1488.145362 102.907481 
1489.109812 102.904555 
1490.074261 102.906879 
1491.038711 102.909659 
1492.003160 102.910082 
1492.967609 102.912835 
1493.932059 102.912537 
1494.896508 102.910143 
1495.860957 102.910252 
1496.825407 102.909580 
1497.789856 102.906745 
1498.754305 102.904098 
1499.718755 102.900349 
1500.683204 102.900998 
1501.647654 102.903488 
1502.612103 102.899991 
1503.576552 102.896599 
1504.541002 102.899659 
1505.505451 102.903396 
1506.469900 102.908064 
1507.434350 102.907115 
1508.398799 102.898468 
1509.363248 102.894754 
1510.327698 102.891883 
1511.292147 102.890528 
1512.256596 102.892444 
1513.221046 102.891902 
1514.185495 102.886214 
1515.149945 102.883065 
1516.114394 102.877296 
1517.078843 102.870150 
1518.043293 102.868062 
1519.007742 102.862772 
1519.972191 102.855620 
1520.936641 102.847730 
1521.901090 102.843684 
1522.865539 102.854662 
1523.829989 102.863445 
1524.794438 102.859081 
1525.758888 102.856793 
1526.723337 102.851282 
1527.687786 102.842768 
1528.652236 102.839880 
1529.616685 102.837747 
1530.581134 102.834231 
1531.545584 102.834709 
1532.510033 102.835474 
1533.474482 102.839694 
1534.438932 102.840772 
1535.403381 102.835200 
1536.367830 102.834096 
1537.332280 102.837024 
1538.296729 102.836636 
1539.261179 102.831112 
1540.225628 102.825497 
1541.190077 102.827924 
1542.154527 102.843571 
1543.118976 102.855989 
1544.083425 102.861820 
1545.047875 102.856910 
1546.012324 102.845793 
1546.976773 102.834038 
1547.941223 102.825007 
1548.905672 102.820158 
1549.870122 102.816759 
1550.834571 102.812281 
1551.799020 102.804168 
1552.763470 102.800056 
1553.727919 102.802423 
1554.692368 102.803891 
1555.656818 102.805523 
1556.621267 102.794931 
1557.585716 102.779566 
1558.550166 102.768410 
1559.514615 102.759281 
1560.479064 102.759092 
1561.443514 102.761855 
1562.407963 102.762525 
1563.372413 102.761269 
1564.336862 102.762570 
1565.301311 102.765211 
1566.265761 102.769751 
1567.230210 102.773656 
1568.194659 102.776970 
1569.159109 102.783210 
1570.123558 102.790974 
1571.088007 102.799260 
1572.052457 102.806703 
1573.016906 102.818849 
1573.981356 102.835401 
1574.945805 102.849555 
1575.910254 102.852019 
1576.874704 102.846798 
1577.839153 102.842138 
1578.803602 102.844694 
1579.768052 102.850223 
1580.732501 102.857268 
1581.696950 102.865221 
1582.661400 102.869799 
1583.625849 102.873134 
1584.590298 102.878522 
1585.554748 102.884922 
1586.519197 102.889966 
1587.483647 102.889148 
1588.448096 102.889965 
1589.412545 102.891165 
1590.376995 102.891762 
1591.341444 102.893397 
1592.305893 102.897546 
1593.270343 102.903690 
1594.234792 102.905014 
1595.199241 102.904655 
1596.163691 102.902321 
1597.128140 102.898464 
1598.092590 102.892164 
1599.057039 102.883611 
1600.021488 102.876768 
1600.985938 102.872794 
1601.950387 102.862831 
1602.914836 102.849923 
1603.879286 102.836663 
1604.843735 102.822463 
1605.808184 102.806275 
1606.772634 102.790718 
1607.737083 102.779626 
1608.701532 102.767102 
1609.665982 102.753237 
1610.630431 102.739693 
1611.594881 102.729208 
1612.559330 102.718543 
1613.523779 102.705889 
1614.488229 102.692328 
1615.452678 102.677833 
1616.417127 102.662680 
1617.381577 102.647308 
1618.346026 102.635977 
1619.310475 102.634718 
1620.274925 102.622061 
1621.239374 102.607903 
1622.203824 102.595533 
1623.168273 102.581277 
1624.132722 102.568420 
1625.097172 102.556187 
1626.061621 102.545940 
1627.026070 102.535026 
1627.990520 102.521072 
1628.954969 102.507469 
1629.919418 102.500297 
1630.883868 102.495740 
1631.848317 102.497831 
1632.812766 102.501886 
1633.777216 102.501211 
1634.741665 102.493469 
1635.706115 102.493565 
1636.670564 102.521587 
1637.635013 102.535162 
1638.599463 102.536654 
1639.563912 102.535233 
1640.528361 102.534678 
1641.492811 102.531176 
1642.457260 102.530102 
1643.421709 102.530131 
1644.386159 102.529766 
1645.350608 102.526964 
1646.315058 102.528341 
1647.279507 102.535404 
1648.243956 102.539910 
1649.208406 102.544828 
1650.172855 102.551947 
1651.137304 102.561750 
1652.101754 102.568021 
1653.066203 102.566821 
1654.030652 102.572787 
1654.995102 102.579682 
1655.959551 102.586546 
1656.924000 102.593978 
1657.888450 102.601111 
1658.852899 102.613395 
1659.817349 102.628462 
1660.781798 102.640348 
1661.746247 102.654529 
1662.710697 102.673143 
1663.675146 102.691895 
1664.639595 102.713255 
1665.604045 102.728756 
1666.568494 102.743721 
1667.532943 102.768060 
1668.497393 102.805956 
1669.461842 102.832760 
1670.426292 102.822012 
1671.390741 102.813945 
1672.355190 102.814434 
1673.319640 102.819153 
1674.284089 102.826489 
1675.248538 102.832866 
1676.212988 102.837189 
1677.177437 102.841029 
1678.141886 102.846162 
1679.106336 102.856160 
1680.070785 102.866819 
1681.035234 102.868568 
1681.999684 102.871401 
1682.964133 102.876321 
1683.928583 102.894104 
1684.893032 102.906875 
1685.857481 102.913827 
1686.821931 102.914009 
1687.786380 102.916702 
1688.750829 102.920743 
1689.715279 102.921929 
1690.679728 102.927270 
1691.644177 102.934599 
1692.608627 102.936863 
1693.573076 102.935841 
1694.537526 102.938439 
1695.501975 102.941608 
1696.466424 102.944812 
1697.430874 102.946043 
1698.395323 102.947183 
1699.359772 102.952404 
1700.324222 102.958080 
1701.288671 102.962709 
1702.253120 102.962095 
1703.217570 102.962839 
1704.182019 102.963886 
1705.146468 102.964865 
1706.110918 102.964270 
1707.075367 102.965671 
1708.039817 102.966308 
1709.004266 102.965674 
1709.968715 102.964960 
1710.933165 102.964797 
1711.897614 102.966145 
1712.862063 102.966259 
1713.826513 102.965220 
1714.790962 102.967633 
1715.755411 102.970410 
1716.719861 102.972611 
1717.684310 102.967099 
1718.648760 102.967186 
1719.613209 102.967196 
1720.577658 102.967788 
1721.542108 102.967184 
1722.506557 102.964288 
1723.471006 102.966282 
1724.435456 102.969367 
1725.399905 102.968505 
1726.364354 102.966864 
1727.328804 102.967852 
1728.293253 102.966524 
1729.257702 102.964673 
1730.222152 102.963843 
1731.186601 102.965387 
1732.151051 102.969263 
1733.115500 102.973901 
1734.079949 102.979845 
1735.044399 102.987026 
1736.008848 102.986939 
1736.973297 102.986864 
1737.937747 102.988270 
1738.902196 102.988826 
1739.866645 102.988760 
1740.831095 102.990383 
1741.795544 102.989280 
1742.759994 102.986569 
1743.724443 102.983065 
1744.688892 102.978635 
1745.653342 102.980248 
1746.617791 102.982623 
1747.582240 102.980411 
1748.546690 102.979407 
1749.511139 102.981789 
1750.475588 102.986501 
1751.440038 102.985943 
1752.404487 102.980496 
1753.368936 102.975645 
1754.333386 102.970080 
1755.297835 102.966687 
1756.262285 102.971200 
1757.226734 102.974879 
1758.191183 102.971061 
1759.155633 102.969117 
1760.120082 102.971218 
1761.084531 102.969725 
1762.048981 102.968258 
1763.013430 102.967767 
1763.977879 102.968734 
1764.942329 102.973298 
1765.906778 102.975853 
1766.871228 102.975049 
1767.835677 102.975519 
1768.800126 102.974329 
1769.764576 102.972135 
1770.729025 102.968779 
1771.693474 102.964273 
1772.657924 102.959879 
1773.622373 102.956701 
1774.586822 102.951268 
1775.551272 102.947910 
1776.515721 102.948257 
1777.480170 102.948503 
1778.444620 102.948097 
1779.409069 102.943480 
1780.373519 102.939201 
1781.337968 102.935976 
1782.302417 102.931378 
1783.266867 102.928653 
1784.231316 102.928151 
1785.195765 102.926445 
1786.160215 102.923733 
1787.124664 102.922885 
1788.089113 102.924434 
1789.053563 102.926691 
1790.018012 102.924789 
1790.982462 102.920822 
1791.946911 102.919606 
1792.911360 102.918466 
1793.875810 102.915447 
1794.840259 102.914687 
1795.804708 102.913804 
1796.769158 102.912801 
1797.733607 102.911626 
1798.698056 102.907838 
1799.662506 102.903627 
1800.626955 102.900380 
1801.591404 102.898806 
1802.555854 102.896485 
1803.520303 102.893005 
1804.484753 102.889944 
1805.449202 102.886966 
1806.413651 102.885313 
1807.378101 102.883996 
1808.342550 102.884133 
1809.306999 102.887253 
1810.271449 102.884486 
1811.235898 102.879309 
1812.200347 102.875088 
1813.164797 102.873077 
1814.129246 102.876410 
1815.093696 102.878256 
1816.058145 102.879219 
1817.022594 102.878561 
1817.987044 102.876393 
1818.951493 102.873607 
1819.915942 102.868992 
1820.880392 102.865315 
1821.844841 102.863822 
1822.809290 102.862995 
1823.773740 102.862362 
1824.738189 102.861054 
1825.702638 102.859116 
1826.667088 102.857446 
1827.631537 102.859273 
1828.595987 102.862733 
1829.560436 102.861385 
1830.524885 102.858572 
1831.489335 102.857238 
1832.453784 102.856852 
1833.418233 102.855479 
1834.382683 102.854469 
1835.347132 102.853370 
1836.311581 102.851958 
1837.276031 102.850678 
1838.240480 102.848970 
1839.204930 102.847518 
1840.169379 102.845802 
1841.133828 102.845454 
1842.098278 102.845389 
1843.062727 102.841131 
1844.027176 102.837851 
1844.991626 102.836973 
1845.956075 102.839710 
1846.920524 102.841834 
1847.884974 102.837800 
1848.849423 102.833574 
1849.813872 102.830001 
1850.778322 102.826127 
1851.742771 102.823031 
1852.707221 102.824021 
1853.671670 102.827841 
1854.636119 102.829777 
1855.600569 102.830259 
1856.565018 102.830607 
1857.529467 102.830644 
1858.493917 102.831537 
1859.458366 102.834039 
1860.422815 102.837734 
1861.387265 102.838521 
1862.351714 102.834149 
1863.316164 102.833298 
1864.280613 102.834494 
1865.245062 102.834636 
1866.209512 102.833197 
1867.173961 102.832425 
1868.138410 102.831991 
1869.102860 102.831019 
1870.067309 102.829338 
1871.031758 102.827619 
1871.996208 102.825329 
1872.960657 102.824222 
1873.925106 102.825257 
1874.889556 102.825568 
1875.854005 102.824879 
1876.818455 102.824383 
1877.782904 102.823827 
1878.747353 102.823624 
1879.711803 102.823844 
1880.676252 102.823654 
1881.640701 102.822319 
1882.605151 102.821358 
1883.569600 102.822115 
1884.534049 102.824330 
1885.498499 102.827447 
1886.462948 102.828400 
1887.427398 102.826510 
1888.391847 102.825775 
1889.356296 102.825800 
1890.320746 102.825570 
1891.285195 102.825702 
1892.249644 102.826114 
1893.214094 102.825909 
1894.178543 102.826735 
1895.142992 102.827593 
1896.107442 102.828933 
1897.071891 102.829923 
1898.036340 102.830224 
1899.000790 102.829027 
1899.965239 102.826083 
1900.929689 102.823065 
1901.894138 102.825206 
1902.858587 102.828249 
1903.823037 102.829433 
1904.787486 102.829564 
1905.751935 102.829958 
1906.716385 102.832348 
1907.680834 102.833613 
1908.645283 102.834175 
1909.609733 102.835562 
1910.574182 102.836191 
1911.538632 102.836382 
1912.503081 102.836621 
1913.467530 102.836178 
1914.431980 102.835146 
1915.396429 102.834026 
1916.360878 102.834027 
1917.325328 102.834039 
1918.289777 102.832832 
1919.254226 102.830516 
1920.218676 102.828321 
1921.183125 102.826517 
1922.147574 102.825217 
1923.112024 102.824114 
1924.076473 102.823329 
1925.040923 102.821300 
1926.005372 102.821053 
1926.969821 102.823507 
1927.934271 102.821705 
1928.898720 102.819299 
1929.863169 102.817778 
1930.827619 102.816202 
1931.792068 102.813589 
1932.756517 102.812174 
1933.720967 102.814245 
1934.685416 102.819252 
1935.649866 102.819962 
1936.614315 102.818455 
1937.578764 102.817642 
1938.543214 102.816966 
1939.507663 102.818137 
1940.472112 102.817232 
1941.436562 102.815589 
1942.401011 102.814445 
1943.365460 102.812796 
1944.329910 102.810426 
1945.294359 102.809296 
1946.258808 102.808189 
1947.223258 102.806608 
1948.187707 102.805311 
1949.152157 102.803998 
1950.116606 102.802174 
1951.081055 102.800357 
1952.045505 102.799277 
1953.009954 102.798890 
1953.974403 102.799420 
1954.938853 102.800577 
1955.903302 102.801447 
1956.867751 102.801768 
1957.832201 102.802498 
1958.796650 102.804936 
1959.761100 102.806417 
1960.725549 102.805388 
1961.689998 102.807505 
1962.654448 102.810386 
1963.618897 102.813096 
1964.583346 102.815732 
1965.547796 102.819729 
1966.512245 102.824112 
1967.476694 102.827965 
1968.441144 102.829787 
1969.405593 102.829895 
1970.370042 102.829218 
1971.334492 102.829432 
1972.298941 102.832227 
1973.263391 102.835570 
1974.227840 102.837217 
1975.192289 102.837485 
1976.156739 102.838696 
1977.121188 102.839469 
1978.085637 102.840764 
1979.050087 102.842442 
1980.014536 102.844311 
1980.978985 102.845615 
1981.943435 102.847015 
1982.907884 102.849219 
1983.872334 102.851167 
1984.836783 102.852265 
1985.801232 102.852886 
1986.765682 102.854331 
1987.730131 102.855719 
1988.694580 102.856648 
1989.659030 102.857138 
1990.623479 102.857536 
1991.587928 102.858109 
1992.552378 102.859874 
1993.516827 102.862078 
1994.481276 102.864794 
1995.445726 102.867770 
1996.410175 102.871047 
1997.374625 102.873173 
1998.339074 102.873944 
1999.303523 102.872231 
2000.267973 102.870426 
2001.232422 102.870952 
2002.196871 102.873152 
2003.161321 102.877360 
2004.125770 102.882640 
2005.090219 102.887234 
2006.054669 102.889568 
2007.019118 102.890705 
2007.983568 102.892741 
2008.948017 102.895411 
2009.912466 102.897600 
2010.876916 102.900542 
2011.841365 102.903567 
2012.805814 102.904922 
2013.770264 102.905231 
2014.734713 102.905034 
2015.699162 102.904729 
2016.663612 102.903897 
2017.628061 102.902169 
2018.592510 102.899733 
2019.556960 102.897380 
2020.521409 102.894731 
2021.485859 102.892024 
2022.450308 102.888709 
2023.414757 102.884771 
2024.379207 102.880513 
2025.343656 102.877155 
2026.308105 102.873721 
2027.272555 102.869427 
2028.237004 102.863806 
2029.201453 102.857282 
2030.165903 102.850113 
2031.130352 102.843680 
2032.094802 102.838925 
2033.059251 102.836831 
2034.023700 102.835874 
2034.988150 102.832848 
2035.952599 102.828798 
2036.917048 102.823600 
2037.881498 102.817537 
2038.845947 102.811153 
2039.810396 102.805218 
2040.774846 102.800209 
2041.739295 102.796307 
2042.703744 102.793372 
2043.668194 102.790687 
2044.632643 102.787422 
2045.597093 102.783002 
2046.561542 102.778704 
2047.525991 102.774066 
2048.490441 102.770381 
2049.454890 102.767457 
2050.419339 102.764195 
2051.383789 102.761614 
2052.348238 102.760045 
2053.312687 102.758894 
2054.277137 102.757963 
2055.241586 102.756786 
2056.206036 102.755437 
2057.170485 102.754084 
2058.134934 102.754009 
2059.099384 102.754126 
2060.063833 102.755113 
2061.028282 102.757002 
2061.992732 102.758431 
2062.957181 102.759409 
2063.921630 102.759829 
2064.886080 102.759265 
2065.850529 102.757721 
2066.814978 102.756488 
2067.779428 102.755390 
2068.743877 102.754104 
2069.708327 102.752578 
2070.672776 102.750173 
2071.637225 102.747684 
2072.601675 102.746415 
2073.566124 102.746010 
2074.530573 102.745697 
2075.495023 102.744993 
2076.459472 102.744164 
2077.423921 102.742462 
2078.388371 102.738992 
2079.352820 102.735721 
2080.317270 102.733899 
2081.281719 102.733999 
2082.246168 102.734482 
2083.210618 102.734233 
2084.175067 102.733965 
2085.139516 102.733761 
2086.103966 102.733421 
2087.068415 102.733286 
2088.032864 102.732664 
2088.997314 102.731948 
2089.961763 102.732087 
2090.926212 102.733519 
2091.890662 102.735656 
2092.855111 102.737684 
2093.819561 102.738484 
2094.784010 102.737557 
2095.748459 102.735881 
2096.712909 102.734648 
2097.677358 102.734625 
2098.641807 102.736016 
2099.606257 102.737636 
2100.570706 102.738215 
2101.535155 102.737783 
2102.499605 102.736762 
2103.464054 102.735568 
2104.428504 102.735613 
2105.392953 102.736827 
2106.357402 102.737874 
2107.321852 102.738303 
2108.286301 102.737798 
2109.250750 102.737385 
2110.215200 102.736785 
2111.179649 102.735524 
2112.144098 102.735245 
2113.108548 102.735683 
2114.072997 102.735390 
2115.037446 102.733547 
2116.001896 102.731421 
2116.966345 102.729964 
2117.930795 102.729325 
2118.895244 102.728564 
2119.859693 102.727338 
2120.824143 102.725953 
2121.788592 102.725253 
2122.753041 102.724656 
2123.717491 102.723866 
2124.681940 102.723065 
2125.646389 102.722199 
2126.610839 102.721044 
2127.575288 102.719459 
2128.539738 102.718663 
2129.504187 102.719421 
2130.468636 102.720255 
2131.433086 102.720289 
2132.397535 102.718763 
2133.361984 102.717319 
2134.326434 102.716454 
2135.290883 102.716076 
2136.255332 102.716816 
2137.219782 102.717789 
2138.184231 102.718364 
2139.148680 102.718184 
2140.113130 102.717466 
2141.077579 102.717249 
2142.042029 102.718224 
2143.006478 102.719585 
2143.970927 102.719970 
2144.935377 102.719599 
2145.899826 102.719144 
2146.864275 102.718888 
2147.828725 102.717903 
2148.793174 102.717400 
2149.757623 102.717456 
2150.722073 102.717315 
2151.686522 102.715637 
2152.650972 102.712977 
2153.615421 102.711028 
2154.579870 102.710499 
2155.544320 102.710430 
2156.508769 102.710523 
2157.473218 102.710487 
2158.437668 102.710531 
2159.402117 102.710666 
2160.366566 102.710348 
2161.331016 102.709899 
2162.295465 102.709700 
2163.259914 102.709456 
2164.224364 102.708534 
2165.188813 102.706994 
2166.153263 102.706136 
2167.117712 102.705693 
2168.082161 102.705614 
2169.046611 102.705265 
2170.011060 102.704587 
2170.975509 102.704785 
2171.939959 102.705218 
2172.904408 102.705336 
2173.868857 102.706490 
2174.833307 102.708640 
2175.797756 102.709721 
2176.762206 102.709340 
2177.726655 102.708316 
2178.691104 102.707996 
2179.655554 102.708273 
2180.620003 102.708267 
2181.584452 102.708597 
2182.548902 102.708695 
2183.513351 102.709094 
2184.477800 102.709655 
2185.442250 102.710447 
2186.406699 102.712312 
2187.371148 102.714623 
2188.335598 102.715983 
2189.300047 102.716491 
2190.264497 102.716500 
2191.228946 102.716869 
2192.193395 102.717378 
2193.157845 102.717825 
2194.122294 102.718615 
2195.086743 102.719615 
2196.051193 102.719916 
2197.015642 102.719176 
2197.980091 102.718003 
2198.944541 102.717723 
2199.908990 102.718652 
2200.873440 102.719934 
2201.837889 102.720819 
2202.802338 102.722005 
2203.766788 102.723608 
2204.731237 102.725145 
2205.695686 102.726407 
2206.660136 102.727826 
2207.624585 102.728927 
2208.589034 102.729123 
2209.553484 102.729512 
2210.517933 102.730246 
2211.482382 102.731647 
2212.446832 102.733634 
2213.411281 102.734817 
2214.375731 102.735177 
2215.340180 102.735782 
2216.304629 102.737453 
2217.269079 102.738622 
2218.233528 102.738677 
2219.197977 102.738780 
2220.162427 102.739380 
2221.126876 102.740054 
2222.091325 102.740728 
2223.055775 102.741746 
2224.020224 102.743339 
2224.984674 102.744755 
2225.949123 102.745611 
2226.913572 102.745658 
2227.878022 102.745713 
2228.842471 102.745989 
2229.806920 102.746385 
2230.771370 102.746905 
2231.735819 102.748026 
2232.700268 102.749323 
2233.664718 102.750524 
2234.629167 102.751350 
2235.593616 102.752282 
2236.558066 102.753852 
2237.522515 102.755037 
2238.486965 102.755339 
2239.451414 102.755111 
2240.415863 102.754947 
2241.380313 102.754955 
2242.344762 102.754662 
2243.309211 102.753708 
2244.273661 102.752278 
2245.238110 102.750684 
2246.202559 102.748837 
2247.167009 102.747109 
2248.131458 102.746865 
2249.095908 102.747377 
2250.060357 102.747672 
2251.024806 102.747870 
2251.989256 102.748112 
2252.953705 102.748372 
2253.918154 102.748747 
2254.882604 102.749347 
2255.847053 102.750183 
2256.811502 102.750342 
2257.775952 102.750323 
2258.740401 102.749797 
2259.704850 102.749808 
2260.669300 102.750939 
2261.633749 102.752423 
2262.598199 102.753129 
2263.562648 102.752690 
2264.527097 102.751490 
2265.491547 102.750668 
2266.455996 102.750653 
2267.420445 102.751103 
2268.384895 102.751636 
2269.349344 102.752037 
2270.313793 102.751558 
2271.278243 102.750686 
2272.242692 102.749187 
2273.207142 102.747980 
2274.171591 102.746843 
2275.136040 102.745066 
2276.100490 102.741846 
2277.064939 102.738718 
2278.029388 102.736891 
2278.993838 102.735939 
2279.958287 102.735390 
2280.922736 102.735747 
2281.887186 102.735453 
2282.851635 102.734819 
2283.816084 102.733376 
2284.780534 102.732305 
2285.744983 102.731712 
2286.709433 102.732799 
2287.673882 102.733028 
2288.638331 102.733148 
2289.602781 102.731662 
2290.567230 102.731370 
2291.531679 102.731455 
2292.496129 102.732973 
2293.460578 102.734932 
2294.425027 102.735516 
2295.389477 102.735300 
2296.353926 102.734267 
2297.318376 102.733297 
2298.282825 102.732625 
2299.247274 102.733724 
2300.211724 102.734564 
2301.176173 102.735249 
2302.140622 102.734757 
2303.105072 102.734241 
2304.069521 102.731729 
2305.033970 102.728584 
2305.998420 102.725337 
2306.962869 102.722349 
2307.927318 102.717736 
2308.891768 102.712678 
2309.856217 102.708036 
2310.820667 102.705388 
2311.785116 102.702248 
2312.749565 102.698377 
2313.714015 102.693333 
2314.678464 102.688243 
2315.642913 102.683992 
2316.607363 102.681683 
2317.571812 102.681934 
2318.536261 102.682211 
2319.500711 102.682088 
2320.465160 102.680113 
2321.429610 102.678473 
2322.394059 102.676482 
2323.358508 102.676039 
2324.322958 102.675535 
2325.287407 102.675079 
2326.251856 102.674206 
2327.216306 102.672726 
2328.180755 102.672228 
2329.145204 102.671373 
2330.109654 102.669887 
2331.074103 102.667708 
2332.038552 102.665173 
2333.003002 102.659411 
2333.967451 102.655621 
2334.931901 102.654730 
2335.896350 102.657155 
2336.860799 102.658529 
2337.825249 102.660493 
2338.789698 102.661155 
2339.754147 102.659717 
2340.718597 102.656904 
2341.683046 102.655943 
2342.647495 102.657231 
2343.611945 102.658050 
2344.576394 102.657565 
2345.540844 102.656420 
2346.505293 102.652277 
2347.469742 102.648375 
2348.434192 102.643585 
2349.398641 102.639781 
2350.363090 102.635477 
2351.327540 102.628582 
2352.291989 102.621418 
2353.256438 102.613751 
2354.220888 102.604551 
2355.185337 102.594154 
2356.149786 102.582922 
2357.114236 102.571023 
2358.078685 102.558381 
2359.043135 102.545217 
2360.007584 102.530585 
2360.972033 102.515817 
2361.936483 102.500482 
2362.900932 102.484830 
2363.865381 102.470439 
2364.829831 102.459784 
2365.794280 102.453997 
2366.758729 102.454610 
2367.723179 102.458458 
2368.687628 102.462857 
2369.652078 102.466120 
2370.616527 102.469306 
2371.580976 102.472799 
2372.545426 102.478245 
2373.509875 102.487193 
2374.474324 102.497992 
2375.438774 102.508699 
2376.403223 102.517033 
2377.367672 102.525544 
2378.332122 102.532874 
2379.296571 102.539049 
2380.261020 102.547203 
2381.225470 102.555211 
2382.189919 102.564109 
2383.154369 102.571811 
2384.118818 102.577769 
2385.083267 102.583110 
2386.047717 102.586017 
2387.012166 102.586999 
2387.976615 102.587088 
2388.941065 102.586172 
2389.905514 102.583354 
2390.869963 102.578548 
2391.834413 102.572999 
2392.798862 102.567086 
2393.763312 102.562181 
2394.727761 102.557726 
2395.692210 102.554029 
2396.656660 102.551551 
2397.621109 102.550342 
2398.585558 102.549572 
2399.550008 102.548520 
2400.514457 102.547631 
2401.478906 102.546875 
2402.443356 102.545771 
2403.407805 102.545064 
2404.372254 102.545810 
2405.336704 102.548234 
2406.301153 102.551834 
2407.265603 102.554822 
2408.230052 102.556758 
2409.194501 102.558333 
2410.158951 102.560351 
2411.123400 102.562738 
2412.087849 102.565290 
2413.052299 102.568278 
2414.016748 102.571032 
2414.981197 102.574163 
2415.945647 102.577283 
2416.910096 102.581017 
2417.874546 102.584372 
2418.838995 102.586424 
2419.803444 102.587512 
2420.767894 102.588066 
2421.732343 102.588957 
2422.696792 102.590030 
2423.661242 102.591281 
2424.625691 102.592790 
2425.590140 102.594022 
2426.554590 102.595027 
2427.519039 102.595763 
2428.483488 102.596802 
2429.447938 102.598065 
2430.412387 102.598998 
2431.376837 102.599552 
2432.341286 102.599217 
2433.305735 102.599127 
2434.270185 102.599478 
2435.234634 102.599872 
2436.199083 102.600257 
2437.163533 102.600346 
2438.127982 102.600264 
2439.092431 102.599122 
2440.056881 102.596630 
2441.021330 102.594060 
2441.985780 102.592303 
2442.950229 102.591896 
2443.914678 102.591454 
2444.879128 102.591258 
2445.843577 102.591087 
2446.808026 102.590787 
2447.772476 102.590753 
2448.736925 102.590030 
2449.701374 102.588505 
2450.665824 102.585608 
2451.630273 102.582563 
2452.594722 102.580789 
2453.559172 102.580648 
2454.523621 102.581701 
2455.488071 102.582538 
2456.452520 102.582439 
2457.416969 102.581756 
2458.381419 102.580573 
2459.345868 102.579902 
2460.310317 102.579972 
2461.274767 102.581348 
2462.239216 102.583076 
2463.203665 102.584403 
2464.168115 102.585124 
2465.132564 102.586019 
2466.097014 102.587805 
2467.061463 102.589550 
2468.025912 102.590794 
2468.990362 102.591606 
2469.954811 102.591918 
2470.919260 102.591686 
2471.883710 102.590510 
2472.848159 102.589629 
2473.812608 102.589313 
2474.777058 102.590046 
2475.741507 102.591308 
2476.705956 102.591371 
2477.670406 102.590892 
2478.634855 102.590203 
2479.599305 102.589690 
2480.563754 102.588347 
2481.528203 102.585953 
2482.492653 102.584122 
2483.457102 102.582780 
2484.421551 102.582285 
2485.386001 102.581717 
2486.350450 102.580935 
2487.314899 102.579694 
2488.279349 102.577303 
2489.243798 102.573740 
2490.208248 102.569623 
2491.172697 102.566119 
2492.137146 102.564079 
2493.101596 102.562610 
2494.066045 102.561759 
2495.030494 102.561031 
2495.994944 102.560052 
2496.959393 102.559268 
2497.923842 102.558979 
2498.888292 102.558715 
2499.852741 102.558240 
2500.817190 102.557259 
2501.781640 102.555930 
2502.746089 102.554634 
2503.710539 102.553335 
2504.674988 102.552661 
2505.639437 102.553015 
2506.603887 102.553667 
2507.568336 102.554738 
2508.532785 102.554980 
2509.497235 102.554618 
2510.461684 102.554220 
2511.426133 102.553709 
2512.390583 102.553314 
2513.355032 102.552493 
2514.319482 102.552233 
2515.283931 102.552558 
2516.248380 102.552799 
2517.212830 102.553096 
2518.177279 102.552866 
2519.141728 102.552449 
2520.106178 102.551490 
2521.070627 102.549542 
2522.035076 102.547065 
2522.999526 102.544930 
2523.963975 102.543663 
2524.928424 102.543045 
2525.892874 102.542582 
2526.857323 102.541917 
2527.821773 102.541419 
2528.786222 102.541504 
2529.750671 102.541430 
2530.715121 102.540752 
2531.679570 102.540190 
2532.644019 102.540131 
2533.608469 102.540015 
2534.572918 102.539696 
2535.537367 102.539412 
2536.501817 102.538884 
2537.466266 102.538640 
2538.430716 102.538522 
2539.395165 102.538136 
2540.359614 102.538237 
2541.324064 102.538277 
2542.288513 102.538263 
2543.252962 102.537638 
2544.217412 102.536624 
2545.181861 102.535151 
2546.146310 102.533189 
2547.110760 102.532200 
2548.075209 102.531805 
2549.039658 102.531595 
2550.004108 102.531043 
2550.968557 102.529656 
2551.933007 102.528048 
2552.897456 102.526635 
2553.861905 102.524758 
2554.826355 102.522370 
2555.790804 102.520186 
2556.755253 102.518846 
2557.719703 102.517939 
2558.684152 102.517106 
2559.648601 102.516066 
2560.613051 102.514927 
2561.577500 102.513638 
2562.541950 102.511567 
2563.506399 102.509352 
2564.470848 102.507461 
2565.435298 102.505487 
2566.399747 102.503160 
2567.364196 102.500755 
2568.328646 102.498839 
2569.293095 102.497694 
2570.257544 102.496570 
2571.221994 102.495286 
2572.186443 102.494330 
2573.150892 102.493767 
2574.115342 102.492331 
2575.079791 102.489246 
2576.044241 102.485537 
2577.008690 102.482254 
2577.973139 102.479551 
2578.937589 102.478202 
2579.902038 102.477427 
2580.866487 102.475880 
2581.830937 102.474048 
2582.795386 102.471925 
2583.759835 102.468911 
2584.724285 102.466232 
2585.688734 102.463848 
2586.653184 102.460977 
2587.617633 102.457831 
2588.582082 102.455684 
2589.546532 102.454202 
2590.510981 102.452150 
2591.475430 102.450186 
2592.439880 102.449307 
2593.404329 102.448752 
2594.368778 102.447794 
2595.333228 102.446370 
2596.297677 102.444337 
2597.262126 102.442200 
2598.226576 102.440258 
2599.191025 102.438987 
2600.155475 102.438414 
2601.119924 102.438430 
2602.084373 102.439033 
2603.048823 102.439090 
2604.013272 102.438923 
2604.977721 102.438233 
2605.942171 102.436335 
2606.906620 102.433847 
2607.871069 102.431775 
2608.835519 102.431392 
2609.799968 102.432557 
2610.764418 102.433802 
2611.728867 102.434223 
2612.693316 102.433257 
2613.657766 102.432045 
2614.622215 102.431177 
2615.586664 102.429704 
2616.551114 102.427969 
2617.515563 102.426279 
2618.480012 102.424723 
2619.444462 102.423497 
2620.408911 102.422083 
2621.373360 102.421009 
2622.337810 102.420077 
2623.302259 102.418794 
2624.266709 102.417643 
2625.231158 102.416643 
2626.195607 102.414703 
2627.160057 102.412788 
2628.124506 102.411704 
2629.088955 102.410426 
2630.053405 102.409589 
2631.017854 102.409137 
2631.982303 102.408852 
2632.946753 102.408989 
2633.911202 102.409287 
2634.875652 102.408888 
2635.840101 102.407557 
2636.804550 102.404923 
2637.769000 102.401417 
2638.733449 102.398837 
2639.697898 102.397809 
2640.662348 102.398316 
2641.626797 102.399388 
2642.591246 102.400206 
2643.555696 102.399330 
2644.520145 102.397241 
2645.484594 102.393912 
2646.449044 102.390033 
2647.413493 102.386128 
2648.377943 102.382667 
2649.342392 102.379574 
2650.306841 102.377001 
2651.271291 102.374890 
2652.235740 102.372521 
2653.200189 102.369968 
2654.164639 102.367095 
2655.129088 102.363439 
2656.093537 102.359842 
2657.057987 102.356904 
2658.022436 102.354825 
2658.986886 102.353762 
2659.951335 102.353425 
2660.915784 102.352565 
2661.880234 102.351343 
2662.844683 102.351431 
2663.809132 102.351900 
2664.773582 102.351893 
2665.738031 102.351373 
2666.702480 102.350241 
2667.666930 102.348094 
2668.631379 102.345211 
2669.595828 102.342048 
2670.560278 102.340449 
2671.524727 102.340721 
2672.489177 102.341713 
2673.453626 102.342246 
2674.418075 102.341298 
2675.382525 102.339341 
2676.346974 102.336047 
2677.311423 102.332010 
2678.275873 102.327492 
2679.240322 102.324184 
2680.204771 102.321883 
2681.169221 102.319845 
2682.133670 102.317615 
2683.098120 102.315650 
2684.062569 102.313101 
2685.027018 102.309963 
2685.991468 102.306535 
2686.955917 102.302497 
2687.920366 102.298674 
2688.884816 102.296120 
2689.849265 102.293622 
2690.813714 102.291035 
2691.778164 102.289203 
2692.742613 102.287422 
2693.707062 102.285347 
2694.671512 102.283913 
2695.635961 102.282478 
2696.600411 102.280638 
2697.564860 102.278089 
2698.529309 102.274872 
2699.493759 102.271771 
2700.458208 102.269017 
2701.422657 102.267449 
2702.387107 102.267737 
2703.351556 102.270107 
2704.316005 102.273088 
2705.280455 102.275400 
2706.244904 102.276308 
2707.209354 102.275962 
2708.173803 102.275278 
2709.138252 102.274737 
2710.102702 102.275057 
2711.067151 102.275926 
2712.031600 102.277211 
2712.996050 102.278773 
2713.960499 102.281427 
2714.924948 102.284400 
2715.889398 102.287740 
2716.853847 102.291488 
2717.818296 102.294231 
2718.782746 102.296774 
2719.747195 102.299293 
2720.711645 102.301375 
2721.676094 102.303287 
2722.640543 102.305100 
2723.604993 102.307242 
2724.569442 102.309558 
2725.533891 102.311267 
2726.498341 102.313238 
2727.462790 102.315785 
2728.427239 102.317675 
2729.391689 102.318816 
2730.356138 102.319105 
2731.320588 102.319069 
2732.285037 102.319437 
2733.249486 102.320319 
2734.213936 102.321583 
2735.178385 102.323170 
2736.142834 102.324775 
2737.107284 102.325557 
2738.071733 102.325252 
2739.036182 102.324115 
2740.000632 102.322947 
2740.965081 102.322689 
2741.929530 102.322831 
2742.893980 102.323003 
2743.858429 102.322671 
2744.822879 102.322197 
2745.787328 102.322079 
2746.751777 102.322269 
2747.716227 102.321829 
2748.680676 102.321963 
2749.645125 102.321998 
2750.609575 102.320596 
2751.574024 102.318934 
2752.538473 102.316830 
2753.502923 102.314677 
2754.467372 102.313098 
2755.431822 102.311354 
2756.396271 102.309513 
2757.360720 102.307383 
2758.325170 102.305318 
2759.289619 102.304173 
2760.254068 102.303001 
2761.218518 102.300789 
2762.182967 102.297621 
2763.147416 102.294411 
2764.111866 102.291558 
2765.076315 102.289780 
2766.040764 102.288546 
2767.005214 102.287501 
2767.969663 102.286715 
2768.934113 102.285637 
2769.898562 102.284407 
2770.863011 102.282365 
2771.827461 102.279262 
2772.791910 102.277576 
2773.756359 102.276685 
2774.720809 102.275347 
2775.685258 102.274423 
2776.649707 102.273618 
2777.614157 102.272938 
2778.578606 102.272407 
2779.543056 102.272088 
2780.507505 102.271490 
2781.471954 102.271718 
2782.436404 102.272579 
2783.400853 102.273180 
2784.365302 102.273853 
2785.329752 102.274252 
2786.294201 102.274727 
2787.258650 102.275276 
2788.223100 102.274827 
2789.187549 102.274370 
2790.151998 102.274050 
2791.116448 102.274178 
2792.080897 102.273863 
2793.045347 102.272589 
2794.009796 102.271472 
2794.974245 102.270633 
2795.938695 102.270877 
2796.903144 102.272080 
2797.867593 102.273041 
2798.832043 102.272604 
2799.796492 102.271705 
2800.760941 102.270307 
2801.725391 102.268688 
2802.689840 102.267399 
2803.654290 102.266080 
2804.618739 102.265572 
2805.583188 102.265857 
2806.547638 102.264473 
2807.512087 102.262194 
2808.476536 102.260080 
2809.440986 102.258398 
2810.405435 102.257097 
2811.369884 102.255842 
2812.334334 102.254789 
2813.298783 102.253513 
2814.263232 102.253440 
2815.227682 102.253382 
2816.192131 102.252456 
2817.156581 102.250807 
2818.121030 102.247472 
2819.085479 102.243936 
2820.049929 102.240320 
2821.014378 102.235882 
2821.978827 102.232092 
2822.943277 102.229239 
2823.907726 102.227185 
2824.872175 102.225467 
2825.836625 102.224304 
2826.801074 102.223731 
2827.765524 102.222748 
2828.729973 102.221726 
2829.694422 102.220197 
2830.658872 102.218128 
2831.623321 102.216444 
2832.587770 102.215857 
2833.552220 102.216583 
2834.516669 102.218258 
2835.481118 102.220070 
2836.445568 102.221430 
2837.410017 102.222846 
2838.374466 102.224185 
2839.338916 102.225716 
2840.303365 102.228535 
2841.267815 102.232539 
2842.232264 102.237167 
2843.196713 102.240831 
2844.161163 102.243885 
2845.125612 102.247258 
2846.090061 102.250511 
2847.054511 102.253685 
2848.018960 102.255367 
2848.983409 102.256028 
2849.947859 102.256699 
2850.912308 102.257477 
2851.876758 102.258614 
2852.841207 102.259104 
2853.805656 102.258742 
2854.770106 102.257947 
2855.734555 102.256448 
2856.699004 102.253844 
2857.663454 102.249987 
2858.627903 102.245090 
2859.592352 102.239575 
2860.556802 102.233886 
2861.521251 102.227840 
2862.485700 102.221335 
2863.450150 102.215199 
2864.414599 102.210035 
2865.379049 102.205321 
2866.343498 102.200858 
2867.307947 102.196278 
2868.272397 102.191411 
2869.236846 102.186176 
2870.201295 102.181704 
2871.165745 102.178067 
2872.130194 102.174524 
2873.094643 102.170820 
2874.059093 102.167137 
2875.023542 102.164024 
2875.987992 102.161373 
2876.952441 102.159529 
2877.916890 102.157724 
2878.881340 102.155453 
2879.845789 102.153589 
2880.810238 102.151950 
2881.774688 102.150601 
2882.739137 102.150346 
2883.703586 102.151390 
2884.668036 102.152293 
2885.632485 102.152543 
2886.596934 102.152476 
2887.561384 102.151915 
2888.525833 102.151195 
2889.490283 102.150608 
2890.454732 102.150283 
2891.419181 102.149638 
2892.383631 102.148148 
2893.348080 102.146510 
2894.312529 102.144180 
2895.276979 102.141207 
2896.241428 102.139298 
2897.205877 102.138513 
2898.170327 102.138434 
2899.134776 102.138825 
2900.099226 102.138762 
2901.063675 102.138089 
2902.028124 102.137408 
2902.992574 102.137653 
2903.957023 102.138519 
2904.921472 102.139893 
2905.885922 102.141852 
2906.850371 102.144752 
2907.814820 102.148517 
2908.779270 102.152065 
2909.743719 102.155441 
2910.708168 102.158582 
2911.672618 102.161914 
2912.637067 102.165328 
2913.601517 102.168801 
2914.565966 102.173010 
2915.530415 102.177918 
2916.494865 102.182789 
2917.459314 102.186005 
2918.423763 102.187503 
2919.388213 102.188011 
2920.352662 102.187899 
2921.317111 102.187017 
2922.281561 102.184842 
2923.246010 102.180439 
2924.210460 102.173648 
2925.174909 102.165540 
2926.139358 102.157440 
2927.103808 102.149721 
2928.068257 102.142779 
2929.032706 102.137035 
2929.997156 102.130921 
2930.961605 102.124253 
2931.926054 102.117192 
2932.890504 102.110661 
2933.854953 102.105002 
2934.819402 102.098576 
2935.783852 102.091721 
2936.748301 102.085918 
2937.712751 102.081695 
2938.677200 102.078348 
2939.641649 102.074746 
2940.606099 102.071131 
2941.570548 102.067244 
2942.534997 102.062992 
2943.499447 102.058553 
2944.463896 102.053907 
2945.428345 102.050323 
2946.392795 102.048898 
2947.357244 102.048388 
2948.321694 102.047474 
2949.286143 102.046432 
2950.250592 102.044674 
2951.215042 102.042329 
2952.179491 102.040462 
2953.143940 102.038531 
2954.108390 102.035893 
2955.072839 102.032701 
2956.037288 102.028522 
2957.001738 102.024334 
2957.966187 102.021558 
2958.930636 102.020908 
2959.895086 102.021625 
2960.859535 102.021603 
2961.823985 102.021180 
2962.788434 102.021330 
2963.752883 102.022857 
2964.717333 102.024836 
2965.681782 102.026607 
2966.646231 102.027844 
2967.610681 102.027968 
2968.575130 102.028578 
2969.539579 102.030590 
2970.504029 102.032325 
2971.468478 102.033313 
2972.432928 102.033997 
2973.397377 102.035144 
2974.361826 102.036348 
2975.326276 102.036889 
2976.290725 102.037095 
2977.255174 102.037824 
2978.219624 102.040161 
2979.184073 102.043209 
2980.148522 102.045535 
2981.112972 102.047536 
2982.077421 102.050121 
2983.041870 102.052926 
2984.006320 102.055827 
2984.970769 102.058463 
2985.935219 102.060039 
2986.899668 102.060895 
2987.864117 102.060623 
2988.828567 102.059488 
2989.793016 102.058578 
2990.757465 102.058283 
2991.721915 102.057759 
2992.686364 102.056275 
2993.650813 102.053672 
2994.615263 102.051949 
2995.579712 102.051678 
2996.544162 102.051792 
2997.508611 102.051063 
2998.473060 102.049806 
2999.437510 102.048429 
3000.401959 102.046880 
3001.366408 102.046417 
3002.330858 102.046930 
3003.295307 102.047983 
3004.259756 102.050324 
3005.224206 102.053210 
3006.188655 102.054906 
3007.153104 102.054826 
3008.117554 102.053328 
3009.082003 102.052373 
3010.046453 102.052543 
3011.010902 102.052341 
3011.975351 102.051121 
3012.939801 102.049219 
3013.904250 102.047921 
3014.868699 102.047176 
3015.833149 102.046816 
3016.797598 102.045571 
3017.762047 102.043012 
3018.726497 102.040326 
3019.690946 102.038141 
3020.655396 102.036168 
3021.619845 102.033282 
3022.584294 102.029443 
3023.548744 102.025411 
3024.513193 102.021977 
3025.477642 102.018490 
3026.442092 102.015177 
3027.406541 102.012742 
3028.370990 102.009850 
3029.335440 102.005779 
3030.299889 102.001414 
3031.264338 101.998069 
3032.228788 101.995477 
3033.193237 101.994253 
3034.157687 101.994293 
3035.122136 101.994560 
3036.086585 101.994877 
3037.051035 101.994103 
3038.015484 101.991253 
3038.979933 101.986669 
3039.944383 101.981878 
3040.908832 101.978225 
3041.873281 101.976024 
3042.837731 101.974143 
3043.802180 101.971369 
3044.766630 101.968233 
3045.731079 101.965004 
3046.695528 101.961719 
3047.659978 101.958575 
3048.624427 101.955797 
3049.588876 101.951104 
3050.553326 101.946998 
3051.517775 101.945299 
3052.482224 101.943986 
3053.446674 101.942123 
3054.411123 101.939714 
3055.375572 101.938101 
3056.340022 101.936431 
3057.304471 101.934001 
3058.268921 101.931153 
3059.233370 101.928458 
3060.197819 101.925427 
3061.162269 101.922017 
3062.126718 101.919682 
3063.091167 101.919631 
3064.055617 101.921500 
3065.020066 101.923738 
3065.984515 101.926121 
3066.948965 101.927575 
3067.913414 101.927755 
3068.877864 101.927087 
3069.842313 101.925602 
3070.806762 101.924417 
3071.771212 101.924254 
3072.735661 101.925026 
3073.700110 101.926521 
3074.664560 101.928048 
3075.629009 101.928778 
3076.593458 101.928213 
3077.557908 101.926099 
3078.522357 101.923331 
3079.486806 101.920670 
3080.451256 101.918101 
3081.415705 101.915088 
3082.380155 101.910785 
3083.344604 101.907757 
3084.309053 101.905530 
3085.273503 101.903173 
3086.237952 101.901814 
3087.202401 101.900910 
3088.166851 101.899461 
3089.131300 101.896376 
3090.095749 101.892002 
3091.060199 101.886834 
3092.024648 101.881045 
3092.989098 101.875623 
3093.953547 101.871181 
3094.917996 101.867762 
3095.882446 101.865755 
3096.846895 101.864195 
3097.811344 101.861052 
3098.775794 101.856335 
3099.740243 101.851481 
3100.704692 101.847232 
3101.669142 101.842881 
3102.633591 101.839218 
3103.598040 101.837396 
3104.562490 101.836503 
3105.526939 101.835810 
3106.491389 101.837086 
3107.455838 101.839184 
3108.420287 101.839498 
3109.384737 101.838815 
3110.349186 101.837951 
3111.313635 101.836566 
3112.278085 101.833692 
3113.242534 101.829365 
3114.206983 101.824636 
3115.171433 101.819505 
3116.135882 101.815582 
3117.100332 101.813483 
3118.064781 101.811434 
3119.029230 101.809377 
3119.993680 101.805695 
3120.958129 101.799406 
3121.922578 101.791049 
3122.887028 101.782172 
3123.851477 101.774773 
3124.815926 101.769576 
3125.780376 101.765477 
3126.744825 101.761066 
3127.709274 101.756715 
3128.673724 101.752484 
3129.638173 101.747583 
3130.602623 101.741954 
3131.567072 101.736540 
3132.531521 101.731042 
3133.495971 101.724811 
3134.460420 101.717839 
3135.424869 101.711747 
3136.389319 101.706917 
3137.353768 101.702920 
3138.318217 101.700361 
3139.282667 101.699022 
3140.247116 101.696396 
3141.211566 101.692240 
3142.176015 101.687698 
3143.140464 101.682235 
3144.104914 101.676009 
3145.069363 101.669914 
3146.033812 101.664553 
3146.998262 101.658671 
3147.962711 101.651732 
3148.927160 101.644999 
3149.891610 101.639058 
3150.856059 101.632731 
3151.820508 101.626662 
3152.784958 101.620638 
3153.749407 101.615820 
3154.713857 101.612014 
3155.678306 101.607736 
3156.642755 101.602288 
3157.607205 101.595936 
3158.571654 101.589776 
3159.536103 101.583730 
3160.500553 101.577513 
3161.465002 101.570615 
3162.429451 101.564088 
3163.393901 101.557938 
3164.358350 101.551385 
3165.322800 101.544635 
3166.287249 101.538136 
3167.251698 101.531672 
3168.216148 101.525652 
3169.180597 101.520984 
3170.145046 101.516801 
3171.109496 101.511951 
3172.073945 101.506146 
3173.038394 101.500596 
3174.002844 101.495744 
3174.967293 101.490405 
3175.931742 101.484149 
3176.896192 101.477952 
3177.860641 101.470517 
3178.825091 101.461556 
3179.789540 101.451778 
3180.753989 101.442644 
3181.718439 101.435145 
3182.682888 101.429049 
3183.647337 101.423460 
3184.611787 101.417976 
3185.576236 101.411753 
3186.540685 101.405582 
3187.505135 101.399175 
3188.469584 101.391196 
3189.434034 101.382538 
3190.398483 101.375100 
3191.362932 101.368501 
3192.327382 101.361016 
3193.291831 101.354193 
3194.256280 101.349632 
3195.220730 101.346641 
3196.185179 101.343050 
3197.149628 101.337718 
3198.114078 101.331696 
3199.078527 101.324329 
3200.042976 101.315816 
3201.007426 101.307796 
3201.971875 101.301092 
3202.936325 101.295866 
3203.900774 101.291623 
3204.865223 101.288321 
3205.829673 101.285679 
3206.794122 101.281933 
3207.758571 101.276514 
3208.723021 101.270459 
3209.687470 101.263585 
3210.651919 101.256126 
3211.616369 101.249226 
3212.580818 101.241777 
3213.545268 101.233834 
3214.509717 101.226835 
3215.474166 101.221279 
3216.438616 101.216326 
3217.403065 101.211856 
3218.367514 101.207367 
3219.331964 101.203229 
3220.296413 101.198238 
3221.260862 101.191107 
3222.225312 101.183463 
3223.189761 101.176877 
3224.154210 101.171241 
3225.118660 101.165830 
3226.083109 101.160130 
3227.047559 101.152849 
3228.012008 101.144096 
3228.976457 101.135817 
3229.940907 101.128542 
3230.905356 101.122200 
3231.869805 101.114971 
3232.834255 101.107015 
3233.798704 101.099777 
3234.763153 101.093718 
3235.727603 101.089782 
3236.692052 101.086180 
3237.656502 101.082923 
3238.620951 101.079000 
3239.585400 101.073460 
3240.549850 101.066750 
3241.514299 101.059665 
3242.478748 101.051294 
3243.443198 101.043030 
3244.407647 101.035395 
3245.372096 101.027402 
3246.336546 101.020637 
3247.300995 101.016319 
3248.265444 101.012432 
3249.229894 101.007921 
3250.194343 101.002672 
3251.158793 100.995618 
3252.123242 100.986861 
3253.087691 100.977006 
3254.052141 100.967444 
3255.016590 100.959657 
3255.981039 100.953964 
3256.945489 100.948806 
3257.909938 100.943184 
3258.874387 100.937135 
3259.838837 100.932869 
3260.803286 100.931478 
3261.767736 100.930343 
3262.732185 100.926691 
3263.696634 100.920573 
3264.661084 100.912909 
3265.625533 100.904321 
3266.589982 100.897580 
3267.554432 100.893832 
3268.518881 100.891647 
3269.483330 100.888959 
3270.447780 100.885242 
3271.412229 100.878766 
3272.376678 100.870210 
3273.341128 100.860233 
3274.305577 100.849031 
3275.270027 100.837528 
3276.234476 100.827831 
3277.198925 100.820504 
3278.163375 100.814404 
3279.127824 100.808117 
3280.092273 100.801543 
3281.056723 100.794523 
3282.021172 100.786790 
3282.985621 100.777737 
3283.950071 100.768115 
3284.914520 100.759246 
3285.878970 100.751821 
3286.843419 100.746688 
3287.807868 100.742963 
3288.772318 100.739276 
3289.736767 100.734612 
3290.701216 100.729405 
3291.665666 100.723952 
3292.630115 100.718844 
3293.594564 100.713014 
3294.559014 100.704376 
3295.523463 100.693470 
3296.487912 100.681599 
3297.452362 100.670769 
3298.416811 100.662227 
3299.381261 100.656160 
3300.345710 100.650466 
3301.310159 100.642349 
3302.274609 100.631131 
3303.239058 100.617588 
3304.203507 100.601919 
3305.167957 100.586107 
3306.132406 100.571291 
3307.096855 100.557694 
3308.061305 100.545406 
3309.025754 100.534092 
3309.990204 100.523672 
3310.954653 100.514563 
3311.919102 100.505480 
3312.883552 100.495240 
3313.848001 100.482657 
3314.812450 100.467633 
3315.776900 100.452173 
3316.741349 100.437626 
3317.705798 100.424511 
3318.670248 100.413383 
3319.634697 100.402618 
3320.599146 100.390958 
3321.563596 100.379297 
3322.528045 100.367597 
3323.492495 100.356244 
3324.456944 100.345542 
3325.421393 100.334966 
3326.385843 100.324622 
3327.350292 100.315001 
3328.314741 100.306234 
3329.279191 100.298620 
3330.243640 100.292489 
3331.208089 100.286221 
3332.172539 100.276185 
3333.136988 100.262987 
3334.101438 100.247617 
3335.065887 100.231272 
3336.030336 100.216706 
3336.994786 100.203940 
3337.959235 100.191790 
3338.923684 100.179371 
3339.888134 100.166829 
3340.852583 100.154488 
3341.817032 100.142936 
3342.781482 100.132167 
3343.745931 100.121239 
3344.710380 100.107873 
3345.674830 100.091813 
3346.639279 100.074084 
3347.603729 100.055601 
3348.568178 100.038199 
3349.532627 100.022447 
3350.497077 100.008735 
3351.461526 99.996473 
3352.425975 99.983742 
3353.390425 99.972255 
3354.354874 99.962862 
3355.319323 99.953544 
3356.283773 99.944706 
3357.248222 99.935266 
3358.212672 99.924545 
3359.177121 99.913907 
3360.141570 99.902580 
3361.106020 99.891767 
3362.070469 99.882346 
3363.034918 99.872538 
3363.999368 99.861674 
3364.963817 99.849559 
3365.928266 99.837602 
3366.892716 99.825745 
3367.857165 99.814403 
3368.821614 99.804770 
3369.786064 99.794490 
3370.750513 99.783414 
3371.714963 99.772489 
3372.679412 99.761203 
3373.643861 99.749812 
3374.608311 99.737511 
3375.572760 99.725536 
3376.537209 99.716662 
3377.501659 99.709237 
3378.466108 99.700353 
3379.430557 99.690929 
3380.395007 99.682042 
3381.359456 99.675641 
3382.323906 99.670857 
3383.288355 99.668043 
3384.252804 99.666914 
3385.217254 99.665688 
3386.181703 99.665073 
3387.146152 99.664651 
3388.110602 99.663282 
3389.075051 99.660401 
3390.039500 99.654662 
3391.003950 99.647039 
3391.968399 99.640674 
3392.932848 99.637008 
3393.897298 99.635930 
3394.861747 99.633610 
3395.826197 99.628341 
3396.790646 99.622098 
3397.755095 99.615002 
3398.719545 99.607042 
3399.683994 99.598692 
3400.648443 99.590791 
3401.612893 99.583477 
3402.577342 99.573381 
3403.541791 99.560706 
3404.506241 99.548608 
3405.470690 99.538134 
3406.435140 99.530544 
3407.399589 99.523917 
3408.364038 99.518321 
3409.328488 99.511954 
3410.292937 99.501959 
3411.257386 99.489789 
3412.221836 99.478790 
3413.186285 99.468060 
3414.150734 99.458301 
3415.115184 99.449731 
3416.079633 99.442735 
3417.044082 99.436314 
3418.008532 99.428923 
3418.972981 99.422389 
3419.937431 99.415738 
3420.901880 99.407409 
3421.866329 99.397860 
3422.830779 99.387652 
3423.795228 99.377416 
3424.759677 99.368754 
3425.724127 99.361227 
3426.688576 99.354495 
3427.653025 99.347833 
3428.617475 99.340352 
3429.581924 99.331255 
3430.546374 99.323853 
3431.510823 99.323499 
3432.475272 99.324315 
3433.439722 99.323621 
3434.404171 99.321703 
3435.368620 99.318713 
3436.333070 99.317169 
3437.297519 99.319762 
3438.261968 99.323054 
3439.226418 99.324950 
3440.190867 99.323566 
3441.155316 99.318812 
3442.119766 99.312069 
3443.084215 99.307761 
3444.048665 99.306376 
3445.013114 99.306188 
3445.977563 99.306583 
3446.942013 99.307715 
3447.906462 99.308561 
3448.870911 99.309295 
3449.835361 99.311059 
3450.799810 99.315503 
3451.764259 99.322507 
3452.728709 99.328968 
3453.693158 99.333427 
3454.657608 99.337210 
3455.622057 99.341038 
3456.586506 99.344796 
3457.550956 99.350628 
3458.515405 99.360985 
3459.479854 99.373004 
3460.444304 99.380724 
3461.408753 99.385410 
3462.373202 99.391177 
3463.337652 99.400660 
3464.302101 99.412376 
3465.266550 99.419300 
3466.231000 99.426490 
3467.195449 99.436177 
3468.159899 99.444119 
3469.124348 99.450595 
3470.088797 99.457062 
3471.053247 99.462670 
3472.017696 99.469340 
3472.982145 99.475797 
3473.946595 99.481030 
3474.911044 99.485929 
3475.875493 99.491216 
3476.839943 99.494916 
3477.804392 99.496814 
3478.768842 99.498182 
3479.733291 99.500469 
3480.697740 99.506436 
3481.662190 99.515623 
3482.626639 99.525788 
3483.591088 99.534878 
3484.555538 99.539285 
3485.519987 99.539991 
3486.484436 99.543038 
3487.448886 99.553971 
3488.413335 99.570775 
3489.377784 99.587888 
3490.342234 99.603155 
3491.306683 99.615762 
3492.271133 99.623348 
3493.235582 99.631187 
3494.200031 99.643204 
3495.164481 99.654284 
3496.128930 99.664803 
3497.093379 99.676691 
3498.057829 99.688838 
3499.022278 99.700849 
3499.986727 99.710262 
3500.951177 99.717698 
3501.915626 99.727110 
3502.880076 99.737007 
3503.844525 99.747263 
3504.808974 99.754741 
3505.773424 99.754612 
3506.737873 99.752654 
3507.702322 99.755094 
3508.666772 99.758960 
3509.631221 99.761443 
3510.595670 99.763430 
3511.560120 99.770510 
3512.524569 99.783079 
3513.489018 99.798215 
3514.453468 99.810793 
3515.417917 99.821054 
3516.382367 99.828619 
3517.346816 99.835156 
3518.311265 99.843730 
3519.275715 99.855006 
3520.240164 99.870781 
3521.204613 99.888493 
3522.169063 99.902695 
3523.133512 99.914335 
3524.097961 99.925196 
3525.062411 99.935524 
3526.026860 99.946066 
3526.991310 99.952972 
3527.955759 99.955746 
3528.920208 99.959982 
3529.884658 99.964530 
3530.849107 99.968878 
3531.813556 99.973691 
3532.778006 99.977013 
3533.742455 99.980194 
3534.706904 99.982053 
3535.671354 99.983150 
3536.635803 99.985120 
3537.600252 99.983329 
3538.564702 99.981524 
3539.529151 99.985096 
3540.493601 99.992226 
3541.458050 99.997980 
3542.422499 100.003507 
3543.386949 100.012418 
3544.351398 100.026476 
3545.315847 100.039204 
3546.280297 100.048653 
3547.244746 100.056992 
3548.209195 100.062978 
3549.173645 100.064626 
3550.138094 100.070203 
3551.102544 100.082978 
3552.066993 100.103045 
3553.031442 100.126596 
3553.995892 100.147167 
3554.960341 100.163000 
3555.924790 100.175415 
3556.889240 100.185020 
3557.853689 100.193669 
3558.818138 100.203747 
3559.782588 100.215202 
3560.747037 100.229146 
3561.711486 100.244524 
3562.675936 100.258279 
3563.640385 100.272148 
3564.604835 100.285252 
3565.569284 100.295472 
3566.533733 100.306761 
3567.498183 100.319059 
3568.462632 100.330694 
3569.427081 100.339901 
3570.391531 100.349488 
3571.355980 100.365809 
3572.320429 100.385719 
3573.284879 100.406492 
3574.249328 100.423402 
3575.213778 100.436734 
3576.178227 100.448960 
3577.142676 100.462748 
3578.107126 100.476500 
3579.071575 100.491549 
3580.036024 100.509387 
3581.000474 100.524426 
3581.964923 100.541297 
3582.929372 100.564551 
3583.893822 100.588292 
3584.858271 100.610484 
3585.822720 100.626991 
3586.787170 100.641201 
3587.751619 100.655980 
3588.716069 100.667372 
3589.680518 100.677567 
3590.644967 100.690090 
3591.609417 100.704490 
3592.573866 100.719154 
3593.538315 100.736349 
3594.502765 100.748432 
3595.467214 100.756089 
3596.431663 100.767425 
3597.396113 100.779040 
3598.360562 100.789368 
3599.325012 100.801162 
3600.289461 100.810502 
3601.253910 100.820580 
3602.218360 100.836526 
3603.182809 100.858783 
3604.147258 100.883904 
3605.111708 100.902653 
3606.076157 100.915607 
3607.040606 100.924742 
3608.005056 100.934506 
3608.969505 100.945569 
3609.933954 100.959209 
3610.898404 100.972307 
3611.862853 100.984722 
3612.827303 101.007388 
3613.791752 101.030204 
3614.756201 101.046983 
3615.720651 101.059990 
3616.685100 101.071241 
3617.649549 101.085624 
3618.613999 101.098384 
3619.578448 101.107183 
3620.542897 101.113389 
3621.507347 101.121694 
3622.471796 101.134661 
3623.436246 101.148043 
3624.400695 101.159451 
3625.365144 101.170001 
3626.329594 101.181854 
3627.294043 101.189734 
3628.258492 101.197181 
3629.222942 101.205023 
3630.187391 101.208868 
3631.151840 101.221868 
3632.116290 101.241112 
3633.080739 101.255173 
3634.045188 101.279659 
3635.009638 101.316512 
3635.974087 101.343995 
3636.938537 101.356467 
3637.902986 101.358950 
3638.867435 101.359094 
3639.831885 101.368072 
3640.796334 101.385629 
3641.760783 101.395531 
3642.725233 101.401866 
3643.689682 101.410311 
3644.654131 101.421506 
3645.618581 101.433425 
3646.583030 101.433504 
3647.547480 101.425800 
3648.511929 101.420541 
3649.476378 101.417933 
3650.440828 101.416065 
3651.405277 101.409531 
3652.369726 101.402096 
3653.334176 101.400956 
3654.298625 101.407854 
3655.263074 101.414247 
3656.227524 101.410413 
3657.191973 101.402844 
3658.156422 101.395351 
3659.120872 101.400726 
3660.085321 101.410349 
3661.049771 101.413351 
3662.014220 101.416329 
3662.978669 101.426233 
3663.943119 101.445364 
3664.907568 101.457708 
3665.872017 101.463544 
3666.836467 101.474866 
3667.800916 101.479817 
3668.765365 101.468911 
3669.729815 101.455780 
3670.694264 101.450138 
3671.658714 101.453632 
3672.623163 101.469014 
3673.587612 101.473706 
3674.552062 101.468341 
3675.516511 101.471804 
3676.480960 101.475465 
3677.445410 101.475231 
3678.409859 101.473276 
3679.374308 101.472713 
3680.338758 101.473835 
3681.303207 101.475527 
3682.267656 101.477351 
3683.232106 101.479675 
3684.196555 101.482315 
3685.161005 101.491563 
3686.125454 101.506681 
3687.089903 101.514743 
3688.054353 101.514101 
3689.018802 101.510363 
3689.983251 101.512542 
3690.947701 101.520123 
3691.912150 101.532532 
3692.876599 101.536853 
3693.841049 101.535699 
3694.805498 101.534614 
3695.769948 101.542658 
3696.734397 101.553702 
3697.698846 101.554313 
3698.663296 101.552236 
3699.627745 101.550887 
3700.592194 101.548009 
3701.556644 101.544504 
3702.521093 101.542471 
3703.485542 101.544430 
3704.449992 101.546796 
3705.414441 101.548577 
3706.378890 101.548516 
3707.343340 101.549962 
3708.307789 101.547324 
3709.272239 101.540224 
3710.236688 101.537936 
3711.201137 101.540942 
3712.165587 101.542994 
3713.130036 101.542882 
3714.094485 101.541722 
3715.058935 101.541835 
3716.023384 101.547544 
3716.987833 101.552746 
3717.952283 101.552789 
3718.916732 101.555215 
3719.881182 101.557555 
3720.845631 101.562169 
3721.810080 101.567449 
3722.774530 101.571233 
3723.738979 101.572841 
3724.703428 101.577624 
3725.667878 101.587004 
3726.632327 101.593164 
3727.596776 101.597145 
3728.561226 101.617226 
3729.525675 101.623474 
3730.490124 101.612262 
3731.454574 101.601326 
3732.419023 101.592485 
3733.383473 101.589731 
3734.347922 101.587076 
3735.312371 101.584551 
3736.276821 101.590095 
3737.241270 101.587911 
3738.205719 101.581946 
3739.170169 101.574886 
3740.134618 101.563319 
3741.099067 101.553895 
3742.063517 101.546077 
3743.027966 101.541084 
3743.992416 101.541610 
3744.956865 101.535995 
3745.921314 101.529223 
3746.885764 101.526360 
3747.850213 101.524883 
3748.814662 101.524026 
3749.779112 101.523836 
3750.743561 101.522297 
3751.708010 101.525442 
3752.672460 101.527278 
3753.636909 101.529985 
3754.601358 101.533484 
3755.565808 101.534002 
3756.530257 101.533304 
3757.494707 101.534573 
3758.459156 101.534986 
3759.423605 101.533263 
3760.388055 101.533844 
3761.352504 101.532832 
3762.316953 101.516459 
3763.281403 101.507458 
3764.245852 101.508318 
3765.210301 101.509672 
3766.174751 101.509872 
3767.139200 101.503962 
3768.103650 101.499215 
3769.068099 101.497064 
3770.032548 101.482547 
3770.996998 101.468192 
3771.961447 101.458275 
3772.925896 101.451162 
3773.890346 101.444898 
3774.854795 101.439052 
3775.819244 101.437432 
3776.783694 101.435845 
3777.748143 101.427223 
3778.712592 101.420130 
3779.677042 101.417219 
3780.641491 101.419511 
3781.605941 101.421825 
3782.570390 101.420797 
3783.534839 101.412366 
3784.499289 101.407268 
3785.463738 101.421368 
3786.428187 101.435615 
3787.392637 101.438244 
3788.357086 101.432722 
3789.321535 101.427315 
3790.285985 101.427928 
3791.250434 101.436627 
3792.214884 101.438977 
3793.179333 101.436612 
3794.143782 101.434944 
3795.108232 101.435977 
3796.072681 101.438471 
3797.037130 101.435215 
3798.001580 101.426920 
3798.966029 101.421255 
3799.930478 101.427379 
3800.894928 101.432318 
3801.859377 101.428119 
3802.823826 101.418408 
3803.788276 101.408138 
3804.752725 101.411227 
3805.717175 101.424102 
3806.681624 101.429829 
3807.646073 101.430976 
3808.610523 101.429958 
3809.574972 101.428292 
3810.539421 101.430863 
3811.503871 101.434623 
3812.468320 101.436265 
3813.432769 101.436422 
3814.397219 101.431838 
3815.361668 101.432161 
3816.326118 101.438463 
3817.290567 101.443797 
3818.255016 101.450177 
3819.219466 101.447496 
3820.183915 101.439479 
3821.148364 101.434732 
3822.112814 101.442202 
3823.077263 101.447550 
3824.041712 101.448779 
3825.006162 101.441645 
3825.970611 101.432216 
3826.935060 101.424143 
3827.899510 101.420637 
3828.863959 101.415826 
3829.828409 101.408933 
3830.792858 101.402808 
3831.757307 101.398432 
3832.721757 101.395387 
3833.686206 101.382318 
3834.650655 101.367254 
3835.615105 101.361377 
3836.579554 101.369157 
3837.544003 101.392356 
3838.508453 101.408889 
3839.472902 101.402362 
3840.437352 101.394828 
3841.401801 101.391967 
3842.366250 101.388453 
3843.330700 101.383949 
3844.295149 101.375064 
3845.259598 101.365611 
3846.224048 101.362140 
3847.188497 101.359303 
3848.152946 101.359528 
3849.117396 101.361494 
3850.081845 101.357213 
3851.046294 101.353337 
3852.010744 101.348836 
3852.975193 101.343096 
3853.939643 101.351962 
3854.904092 101.359667 
3855.868541 101.352567 
3856.832991 101.346758 
3857.797440 101.345241 
3858.761889 101.342949 
3859.726339 101.339158 
3860.690788 101.334813 
3861.655237 101.325229 
3862.619687 101.315124 
3863.584136 101.309549 
3864.548586 101.311882 
3865.513035 101.312474 
3866.477484 101.309732 
3867.441934 101.308564 
3868.406383 101.311485 
3869.370832 101.322316 
3870.335282 101.331724 
3871.299731 101.324179 
3872.264180 101.305905 
3873.228630 101.292824 
3874.193079 101.283634 
3875.157528 101.277160 
3876.121978 101.273351 
3877.086427 101.269720 
3878.050877 101.268476 
3879.015326 101.266359 
3879.979775 101.260739 
3880.944225 101.256020 
3881.908674 101.250676 
3882.873123 101.243656 
3883.837573 101.240793 
3884.802022 101.239690 
3885.766471 101.246369 
3886.730921 101.253672 
3887.695370 101.247939 
3888.659820 101.244321 
3889.624269 101.242747 
3890.588718 101.241771 
3891.553168 101.234687 
3892.517617 101.222355 
3893.482066 101.214372 
3894.446516 101.209788 
3895.410965 101.206114 
3896.375414 101.204932 
3897.339864 101.202653 
3898.304313 101.190809 
3899.268762 101.180147 
3900.233212 101.177502 
3901.197661 101.178567 
3902.162111 101.178491 
3903.126560 101.172304 
3904.091009 101.163491 
3905.055459 101.158707 
3906.019908 101.154846 
3906.984357 101.154663 
3907.948807 101.158954 
3908.913256 101.161327 
3909.877705 101.159557 
3910.842155 101.156130 
3911.806604 101.150965 
3912.771054 101.148339 
3913.735503 101.149931 
3914.699952 101.156066 
3915.664402 101.165876 
3916.628851 101.172973 
3917.593300 101.173194 
3918.557750 101.174941 
3919.522199 101.173879 
3920.486648 101.170811 
3921.451098 101.168180 
3922.415547 101.161549 
3923.379996 101.154791 
3924.344446 101.148666 
3925.308895 101.145541 
3926.273345 101.147082 
3927.237794 101.150518 
3928.202243 101.150490 
3929.166693 101.149288 
3930.131142 101.146660 
3931.095591 101.145539 
3932.060041 101.148181 
3933.024490 101.151859 
3933.988939 101.153759 
3934.953389 101.152666 
3935.917838 101.151796 
3936.882288 101.153020 
3937.846737 101.152379 
3938.811186 101.152078 
3939.775636 101.155260 
3940.740085 101.160375 
3941.704534 101.163316 
3942.668984 101.161981 
3943.633433 101.159913 
3944.597882 101.161622 
3945.562332 101.168595 
3946.526781 101.177746 
3947.491230 101.183606 
3948.455680 101.186662 
3949.420129 101.186355 
3950.384579 101.181548 
3951.349028 101.176960 
3952.313477 101.171541 
3953.277927 101.166149 
3954.242376 101.161642 
3955.206825 101.158150 
3956.171275 101.157538 
3957.135724 101.158005 
3958.100173 101.158558 
3959.064623 101.160923 
3960.029072 101.161852 
3960.993522 101.159591 
3961.957971 101.157738 
3962.922420 101.155974 
3963.886870 101.155070 
3964.851319 101.152617 
3965.815768 101.149673 
3966.780218 101.149127 
3967.744667 101.148486 
3968.709116 101.146119 
3969.673566 101.144129 
3970.638015 101.141243 
3971.602464 101.137240 
3972.566914 101.132808 
3973.531363 101.127880 
3974.495813 101.123768 
3975.460262 101.121833 
3976.424711 101.122254 
3977.389161 101.124857 
3978.353610 101.127495 
3979.318059 101.127880 
3980.282509 101.123741 
3981.246958 101.119186 
3982.211407 101.115393 
3983.175857 101.111881 
3984.140306 101.107886 
3985.104756 101.104891 
3986.069205 101.103919 
3987.033654 101.103754 
3987.998104 101.104690 
3988.962553 101.106992 
3989.927002 101.107845 
3990.891452 101.108807 
3991.855901 101.112594 
3992.820350 101.116200 
3993.784800 101.118527 
3994.749249 101.119622 
3995.713698 101.120754 
3996.678148 101.122424 
3997.642597 101.124737 
3998.607047 101.128786 
3999.571496 101.132501 
4000.535945 101.133066 